4403.25,0,63946
4407.219,0,63943
4411.188,0,63943
4415.156,0,63948
4419.125,0,63948
4423.125,0,63948
4427.062,0,63942
4431,0,63943
4434.938,0,63942
4438.906,0,63944
4442.875,0,63949
4446.844,0,63943
4450.812,0,63944
4454.938,0,63947
4458.875,0,63951
4462.812,0,63949
4466.75,0,63944
4470.625,0,63946
4474.594,0,63947
4478.562,0,63948
4482.531,0,63949
4486.594,0,63947
4490.531,0,63950
4494.469,0,63951
4498.406,0,63950
4502.375,0,63945
4506.344,0,63944
4510.312,0,63942
4514.281,0,63944
4518.281,0,63944
4522.219,0,63942
4526.156,0,63945
4530.094,0,63943
4534.125,0,63942
4538.062,0,63945
4542,0,63947
4545.938,0,63944
4549.906,0,63944
4553.875,0,63945
4557.844,0,63945
4561.812,0,63946
4565.781,0,63946
4569.75,0,63949
4573.719,0,63945
4577.688,0,63950
4581.75,0,63949
4585.688,0,63947
4589.625,0,63948
4593.562,0,63944
4597.469,0,63947
4601.438,0,63948
4605.406,0,63941
4609.375,0,63943
4613.438,0,63944
4617.375,0,63947
4621.312,0,63948
4625.25,0,63944
4629.281,0,63946
4633.219,0,63944
4637.156,0,63947
4641.094,0,63947
4645.062,0,63949
4649.031,0,63946
4653,0,63946
4656.969,0,63942
4661,0,63946
4664.938,0,63947
4668.875,0,63945
4672.812,0,63946
4676.781,0,63950
4680.75,0,63945
4684.719,0,63942
4688.688,0,63945
4692.719,0,63944
4696.656,0,63944
4700.594,0,63943
4704.531,0,63945
4708.5,0,63945
4712.469,0,63944
4716.438,0,63946
4720.406,0,63945
4724.438,0,63945
4728.375,0,63945
4732.312,0,63944
4736.25,0,63946
4740.219,0,63947
4744.188,0,63949
4748.156,0,63943
4752.125,0,63944
4756.156,0,63946
4760.094,0,63946
4764.031,0,63947
4767.969,0,63952
4771.938,0,63952
4775.906,0,63951
4779.875,0,63950
4783.844,0,63942
4787.875,0,63946
4791.812,0,63945
4795.75,0,63946
4799.688,0,63944
4803.719,0,63945
4807.656,0,63948
4811.594,0,63946
4815.531,0,63946
4819.5,0,63948
4823.469,0,63948
4827.438,0,63949
4831.406,0,63949
4835.375,0,63949
4839.344,0,63947
4843.312,0,63949
4847.281,0,63949
4851.312,0,63950
4855.25,0,63945
4859.188,0,63949
4863.125,0,63945
4867.156,0,63946
4871.094,0,63945
4875.031,0,63943
4878.969,0,63946
4882.938,0,63945
4886.906,0,63944
4890.875,0,63948
4894.844,0,63943
4898.875,0,63948
4902.812,0,63944
4906.75,0,63948
4910.688,0,63949
4914.688,0,63948
4918.656,0,63949
4922.625,0,63944
4926.594,0,63944
4930.594,0,63945
4934.531,0,63944
4938.469,0,63941
4942.406,0,63949
4946.375,0,63948
4950.344,0,63948
4954.312,0,63949
4958.281,0,63946
4962.312,0,63944
4966.25,0,63946
4970.188,0,63946
4974.125,0,63946
4978.156,0,63949
4982.094,0,63948
4986.031,0,63949
4989.969,0,63949
4994,0,63951
4997.938,0,63945
5001.875,0,63950
5005.812,0,63947
5009.781,0,63948
5013.75,0,63948
5017.719,0,63947
5021.688,0,63947
5025.75,0,63946
5029.688,0,63947
5033.625,0,63945
5037.562,0,63944
5041.594,0,63943
5045.531,0,63941
5049.469,0,63942
5053.406,0,63944
5057.375,0,63944
5061.344,0,63940
5065.312,0,63946
5069.281,0,63944
5073.344,0,63943
5077.281,0,63946
5081.219,0,63945
5085.156,0,63946
5089.094,0,63942
5093.062,0,63945
5097.031,0,63945
5101,0,63945
5104.969,0,63948
5108.938,0,63947
5112.906,0,63952
5116.875,0,63951
5120.906,0,63951
5124.844,0,63951
5128.781,0,63950
5132.719,0,63948
5136.75,0,63948
5140.688,0,63948
5144.625,0,63945
5148.562,0,63945
5152.531,0,63947
5156.5,0,63942
5160.469,0,63945
5164.438,0,63944
5168.469,0,63948
5172.406,0,63947
5176.344,0,63949
5180.281,0,63949
5184.312,0,63945
5188.25,0,63946
5192.188,0,63948
5196.125,0,63948
5200.156,0,63949
5204.125,0,63950
5208.094,0,63945
5212.062,0,63950
5215.938,0,63945
5219.906,0,63946
5223.875,0,63946
5227.844,0,63945
5231.906,0,63946
5235.844,0,63945
5239.781,0,63945
5243.719,0,63946
5247.75,0,63950
5251.688,0,63949
5255.625,0,63949
5259.562,0,63950
5263.594,0,63949
5267.531,0,63946
5271.469,0,63949
5275.406,0,63950
5279.406,0,63950
5283.375,0,63946
5287.344,0,63950
5291.312,0,63949
5295.344,0,63948
5299.281,0,63946
5303.219,0,63947
5307.156,0,63947
5311.188,0,63944
5315.125,0,63948
5319.062,0,63943
5323,0,63946
5326.969,0,63944
5330.938,0,63945
5334.906,0,63944
5338.875,0,63949
5342.844,0,63948
5346.812,0,63945
5350.781,0,63948
5354.75,0,63948
5358.781,0,63950
5362.719,0,63945
5366.656,0,63946
5370.594,0,63943
5374.562,0,63945
5378.531,0,63944
5382.5,0,63946
5386.469,0,63947
5390.5,0,63944
5394.438,0,63944
5398.375,0,63946
5402.312,0,63948
5406.344,0,63949
5410.281,0,63948
5414.219,0,63948
5418.156,0,63946
5422.125,0,63947
5426.094,0,63948
5430.062,0,63952
5434.031,0,63951
5438.062,0,63949
5442,0,63950
5445.938,0,63952
5449.875,0,63950
5453.906,0,63945
5457.844,0,63944
5461.781,0,63947
5465.719,0,63944
5469.688,0,63945
5473.656,0,63943
5477.625,0,63944
5481.594,0,63944
5485.625,0,63947
5489.562,0,63943
5493.5,0,63942
5497.438,0,63947
5501.406,0,63949
5505.375,0,63948
5509.344,0,63948
5513.312,0,63945
5517.375,0,63945
5521.312,0,63946
5525.25,0,63943
5529.188,0,63946
5533.125,0,63953
5537.094,0,63946
5541.062,0,63950
5545.031,0,63946
5548.969,0,63951
5552.938,0,63950
5556.906,0,63949
5560.875,0,63944
5564.938,0,63944
5568.875,0,63945
5572.812,0,63945
5576.75,0,63945
5580.781,0,63945
5584.719,0,63944
5588.656,0,63948
5592.594,0,63944
5596.625,0,63946
5600.562,0,63948
5604.5,0,63949
5608.438,0,63951
5612.406,0,63945
5616.375,0,63948
5620.344,0,63945
5624.312,0,63944
5628.344,0,63943
5632.281,0,63944
5636.219,0,63945
5640.156,0,63944
5644.125,0,63943
5648.094,0,63945
5652.062,0,63947
5656.031,0,58328
5659.969,0,31401
5663.938,0,12386
5667.906,0,12384
5671.875,0,12385
5675.906,0,12385
5679.844,0,12385
5683.781,0,12386
5687.719,0,12384
5691.688,0,12386
5695.656,0,12386
5699.625,0,12386
5703.594,0,12387
5707.562,0,12386
5711.531,0,12386
5715.5,0,12384
5719.469,0,12386
5723.531,0,12386
5727.469,0,12385
5731.406,0,12386
5735.344,0,12386
5739.281,0,12387
5743.25,0,12386
5747.219,0,12386
5751.188,0,12385
5755.219,0,12387
5759.156,0,12385
5763.094,0,12386
5767.031,0,12387
5771.062,0,12386
5775,0,12385
5778.938,0,12384
5782.875,0,12383
5786.844,0,12385
5790.812,0,12386
5794.781,0,12385
5798.75,0,12384
5802.781,0,12386
5806.719,0,12386
5810.656,0,12383
5814.594,0,12387
5818.562,0,12386
5822.531,0,12386
5826.5,0,12384
5830.469,0,12385
5834.438,0,12385
5838.406,0,12387
5842.375,0,12387
5846.344,0,12386
5850.375,0,12386
5854.312,0,12384
5858.25,0,12386
5862.188,0,12385
5866.219,0,12386
5870.156,0,12384
5874.094,0,12386
5878.031,0,12386
5882,0,12387
5885.969,0,12386
5889.938,0,12385
5893.906,0,12384
5897.875,0,12385
5901.844,0,12385
5905.812,0,12384
5909.781,0,12385
5913.812,0,12386
5917.75,0,12384
5921.688,0,12385
5925.625,0,12387
5929.656,0,12385
5933.594,0,12385
5937.531,0,12385
5941.469,0,12384
5945.5,0,12384
5949.438,0,12387
5953.375,0,12386
5957.312,0,12386
5961.281,0,12386
5965.25,0,12386
5969.219,0,12383
5973.188,0,12385
5977.25,0,12386
5981.188,0,12387
5985.125,0,12385
5989.062,0,12384
5993.031,0,12387
5997,0,12387
6000.969,0,12385
6004.938,0,12385
6008.875,0,12386
6012.844,0,12385
6016.812,0,12386
6020.781,0,12387
6024.781,0,12386
6028.719,0,12385
6032.656,0,12386
6036.594,0,12386
6040.656,0,12385
6044.594,0,12384
6048.531,0,12387
6052.469,0,12386
6056.438,0,12387
6060.406,0,12385
6064.375,0,12386
6068.344,0,12385
6072.312,0,12387
6076.281,0,12386
6080.25,0,12386
6084.219,0,12385
6088.25,0,12386
6092.188,0,12386
6096.125,0,12386
6100.062,0,12387
6104.094,0,12384
6108.031,0,12384
6111.969,0,12384
6115.906,0,12385
6119.844,0,12384
6123.812,0,12387
6127.781,0,12387
6131.75,0,12386
6135.812,0,12385
6139.75,0,12387
6143.688,0,12386
6147.625,0,12384
6151.594,0,12386
6155.562,0,12385
6159.531,0,12385
6163.5,0,12385
6167.469,0,12385
6171.438,0,12385
6175.406,0,12386
6179.375,0,12386
6183.406,0,12385
6187.344,0,12385
6191.281,0,12387
6195.219,0,12385
6199.25,0,12387
6203.188,0,12385
6207.125,0,12385
6211.062,0,12384
6215.094,0,12387
6219.031,0,12385
6222.969,0,12387
6226.906,0,12386
6230.875,0,12385
6234.844,0,12384
6238.812,0,12384
6242.781,0,12385
6246.844,0,12387
6250.781,0,12384
6254.719,0,12385
6258.656,0,12383
6262.625,0,12388
6266.594,0,12383
6270.562,0,12386
6274.531,0,12383
6278.531,0,12386
6282.469,0,12384
6286.406,0,12385
6290.344,0,12384
6294.438,0,12387
6298.375,0,12386
6302.312,0,12386
6306.25,0,12386
6310.125,0,12386
6314.094,0,12386
6318.062,0,12385
6322.031,0,12387
6326,0,12387
6329.969,0,12386
6333.938,0,12386
6337.906,0,12384
6341.969,0,12384
6345.906,0,12387
6349.844,0,12386
6353.781,0,12386
6357.719,0,12385
6361.688,0,12386
6365.656,0,12386
6369.625,0,12388
6373.594,0,12385
6377.531,0,12386
6381.469,0,12386
6385.406,0,12386
6389.469,0,12387
6393.406,0,12385
6397.344,0,12386
6401.281,0,12385
6405.25,0,12386
6409.219,0,12385
6413.188,0,12386
6417.156,0,12385
6421.094,0,12387
6425.062,0,12386
6429.031,0,12386
6433,0,12384
6437.062,0,12385
6441,0,12386
6444.938,0,12386
6448.875,0,12386
6452.844,0,12385
6456.812,0,12385
6460.781,0,12384
6464.75,0,12385
6468.75,0,12387
6472.688,0,12384
6476.625,0,12385
6480.562,0,12384
6484.594,0,12385
6488.531,0,12385
6492.469,0,12386
6496.406,0,12385
6500.344,0,12387
6504.312,0,12385
6508.281,0,12386
6512.25,0,12385
6516.312,0,12383
6520.25,0,12387
6524.188,0,12385
6528.125,0,12385
6532.094,0,12386
6536.062,0,12388
6540.031,0,12386
6544,0,12386
6548.031,0,12384
6551.969,0,12383
6555.906,0,12386
6559.844,0,12385
6563.844,0,12385
6567.781,0,12385
6571.719,0,12386
6575.656,0,12387
6579.656,0,12386
6583.625,0,12388
6587.594,0,12386
6591.562,0,12385
6595.594,0,12385
6599.531,0,12385
6603.469,0,12386
6607.406,0,12386
6611.375,0,12385
6615.344,0,12386
6619.312,0,12382
6623.281,0,12387
6627.312,0,12387
6631.25,0,12386
6635.188,0,12386
6639.125,0,12385
6643.188,0,12386
6647.125,0,12385
6651.062,0,12387
6655,0,12388
6658.906,0,12386
6662.875,0,12386
6666.844,0,12385
6670.812,0,12386
6674.875,0,12385
6678.812,0,12385
6682.75,0,12386
6686.688,0,12384
6690.656,0,12384
6694.625,0,12385
6698.594,0,12386
6702.562,0,12387
6706.625,0,12387
6710.562,0,12386
6714.5,0,12386
6718.438,0,12385
6722.406,0,12386
6726.375,0,12384
6730.344,0,12384
6734.312,0,12385
6738.281,0,12385
6742.219,0,12387
6746.156,0,12385
6750.094,0,12384
6754.125,0,12385
6758.062,0,12385
6762,0,12384
6765.938,0,12385
6769.906,0,12386
6773.875,0,12385
6777.844,0,12385
6781.812,0,12386
6785.781,0,12387
6789.75,0,12387
6793.719,0,12387
6797.688,0,12385
6801.719,0,12385
6805.656,0,12385
6809.594,0,12386
6813.531,0,12386
6817.5,0,12385
6821.469,0,12385
6825.438,0,12383
6829.406,0,12386
6833.438,0,12387
6837.375,0,12387
6841.312,0,12385
6845.25,0,12387
6849.188,0,12384
6853.156,0,12386
6857.125,0,12386
6861.094,0,12384
6865.125,0,12384
6869.062,0,12387
6873,0,12385
6876.938,0,12383
6880.906,0,12384
6884.875,0,12386
6888.844,0,12383
6892.812,0,12384
6896.844,0,12385
6900.781,0,12384
6904.719,0,12385
6908.656,0,12386
6912.719,0,12385
6916.656,0,12385
6920.594,0,12385
6924.531,0,12384
6928.531,0,12384
6932.469,0,12386
6936.406,0,12386
6940.344,0,12385
6944.312,0,12384
6948.281,0,12387
6952.25,0,12385
6956.219,0,12387
6960.281,0,12385
6964.219,0,12385
6968.156,0,12385
6972.094,0,12388
6976.188,0,12385
6980.156,0,12384
6984.125,0,12388
6988.094,0,12385
6991.875,0,12385
6995.844,0,12386
6999.812,0,12385
7003.781,0,12386
7007.812,0,12385
7011.75,0,12386
7015.688,0,12384
7019.625,0,12386
7023.562,0,12384
7027.531,0,12386
7031.5,0,12384
7035.469,0,12385
7039.531,0,12389
7043.469,0,12386
7047.406,0,12385
7051.344,0,12385
7055.312,0,12387
7059.281,0,12384
7063.25,0,12386
7067.219,0,12385
7071.188,0,12386
7075.156,0,12386
7079.125,0,12386
7083.094,0,12387
7087.125,0,12385
7091.062,0,12386
7095,0,12387
7098.938,0,12386
7103,0,12384
7106.938,0,12385
7110.875,0,12386
7114.812,0,12388
7118.75,0,12385
7122.719,0,12387
7126.688,0,12387
7130.656,0,12385
7134.75,0,12387
7138.688,0,12387
7142.625,0,12385
7146.562,0,12387
7150.469,0,12387
7154.438,0,12385
7158.406,0,12386
7162.375,0,12386
7166.406,0,12387
7170.344,0,12387
7174.281,0,12386
7178.219,0,12386
7182.25,0,12387
7186.188,0,12385
7190.125,0,12386
7194.062,0,12386
7198,0,12386
7201.969,0,12386
7205.938,0,12388
7209.906,0,12387
7213.844,0,12386
7217.812,0,12385
7221.781,0,12387
7225.75,0,12387
7229.812,0,12384
7233.75,0,12386
7237.688,0,12387
7241.625,0,12387
7245.594,0,12385
7249.562,0,12384
7253.531,0,12385
7257.5,0,12385
7261.531,0,12385
7265.469,0,12384
7269.406,0,12386
7273.344,0,12385
7277.375,0,12386
7281.312,0,12387
7285.25,0,12385
7289.188,0,12388
7293.156,0,12384
7297.125,0,12386
7301.094,0,12387
7305.062,0,12385
7309.094,0,12384
7313.031,0,12385
7316.969,0,12386
7320.906,0,12386
7324.875,0,12387
7328.844,0,12386
7332.812,0,12386
7336.781,0,12385
7340.812,0,12386
7344.75,0,12386
7348.688,0,12386
7352.625,0,12385
7356.562,0,12385
7360.531,0,12385
7364.5,0,12386
7368.469,0,12385
7372.531,0,12385
7376.469,0,12387
7380.406,0,12386
7384.344,0,12387
7388.375,0,12386
7392.312,0,12386
7396.25,0,12387
7400.188,0,12387
7404.219,0,12386
7408.156,0,12385
7412.094,0,12386
7416.031,0,12386
7420,0,12385
7423.969,0,12386
7427.938,0,12385
7431.906,0,12385
7435.875,0,12385
7439.844,0,12386
7443.812,0,12385
7447.781,0,12385
7451.812,0,12385
7455.75,0,12384
7459.688,0,12385
7463.625,0,12386
7467.656,0,12384
7471.594,0,12385
7475.531,0,12386
7479.469,0,12387
7483.438,0,12386
7487.406,0,12386
7491.375,0,12387
7495.344,0,12386
7499.375,0,12385
7503.312,0,12386
7507.25,0,12384
7511.188,0,12386
7515.156,0,12385
7519.125,0,12385
7523.094,0,12385
7527.062,0,12384
7531.094,0,12386
7535.031,0,12384
7538.969,0,12386
7542.906,0,12386
7546.938,0,12386
7550.875,0,12386
7554.812,0,12386
7558.75,0,12385
7562.812,0,12387
7566.75,0,12384
7570.688,0,12387
7574.625,0,12386
7578.562,0,12387
7582.531,0,12387
7586.5,0,12386
7590.469,0,12385
7594.5,0,12387
7598.438,0,12386
7602.375,0,12387
7606.312,0,12387
7610.281,0,12386
7614.25,0,12385
7618.219,0,12385
7622.188,0,12385
7626.188,0,12386
7630.125,0,12385
7634.062,0,12386
7638,0,12385
7642.062,0,12387
7646,0,12386
7649.938,0,12386
7653.875,0,12385
7657.938,0,12386
7661.875,0,12385
7665.812,0,12387
7669.75,0,12386
7673.656,0,12387
7677.625,0,12387
7681.594,0,12385
7685.562,0,12385
7689.531,0,12387
7693.5,0,12386
7697.469,0,12385
7701.438,0,12386
7705.5,0,12387
7709.438,0,12386
7713.375,0,12385
7717.312,0,12386
7721.312,0,12386
7725.25,0,12387
7729.188,0,12384
7733.125,0,12387
7737.094,0,12386
7741.062,0,12385
7745.031,0,12385
7749,0,12384
7752.969,0,12386
7756.938,0,12385
7760.906,0,12387
7764.875,0,12387
7768.906,0,12386
7772.844,0,12386
7776.781,0,12384
7780.719,0,12384
7784.75,0,12384
7788.688,0,12386
7792.625,0,12385
7796.562,0,12386
7800.531,0,12386
7804.5,0,12387
7808.469,0,12384
7812.438,0,12385
7816.438,0,12387
7820.375,0,12385
7824.312,0,12386
7828.25,0,12387
7832.344,0,12386
7836.281,0,12385
7840.219,0,12387
7844.156,0,12386
7848.094,0,12385
7852.062,0,12386
7856.031,0,12384
7860,0,12385
7864.031,0,12385
7867.969,0,12385
7871.906,0,12384
7875.844,0,12385
7879.812,0,12385
7883.781,0,12388
7887.75,0,12386
7891.719,0,12386
7895.625,0,12385
7899.594,0,12387
7903.562,0,12386
7907.531,0,12385
7911.594,0,12385
7915.531,0,12387
7919.469,0,12385
7923.406,0,12385
7927.375,0,12385
7931.344,0,12386
7935.312,0,12385
7939.281,0,12386
7943.344,0,12386
7947.281,0,12385
7951.219,0,12387
7955.156,0,12388
7959.094,0,12386
7963.062,0,12386
7967.031,0,12386
7971,0,12389
7974.969,0,12387
7978.938,0,12389
7982.906,0,12387
7986.875,0,12386
7990.875,0,12386
7994.812,0,12387
7998.75,0,12385
8002.688,0,12386
8006.656,0,12387
8010.625,0,12386
8014.594,0,12386
8018.562,0,12386
8022.531,0,12385
8026.5,0,12386
8030.469,0,12386
8034.438,0,12386
8038.469,0,12386
8042.406,0,12385
8046.344,0,12385
8050.281,0,12388
8054.25,0,12385
8058.219,0,12386
8062.188,0,12386
8066.156,0,12385
8070.188,0,12386
8074.125,0,12385
8078.062,0,12387
8082,0,12387
8086.031,0,12383
8089.969,0,12388
8093.906,0,12386
8097.844,0,12386
8101.875,0,12386
8105.812,0,12387
8109.75,0,12387
8113.688,0,12385
8117.656,0,12386
8121.625,0,12385
8125.594,0,12386
8129.562,0,12386
8133.594,0,12386
8137.531,0,12386
8141.469,0,12385
8145.406,0,12385
8149.375,0,12387
8153.344,0,12385
8157.312,0,12385
8161.281,0,12385
8165.312,0,12385
8169.25,0,12386
8173.188,0,12386
8177.125,0,12386
8181.156,0,12388
8185.094,0,12387
8189.031,0,12386
8192.969,0,12386
8196.938,0,12383
8200.906,0,12386
8204.875,0,12386
8208.844,0,12384
8212.906,0,12385
8216.844,0,12387
8220.781,0,12384
8224.719,0,12385
8228.625,0,12387
8232.594,0,12384
8236.562,0,12386
8240.531,0,12387
8244.594,0,12387
8248.531,0,12385
8252.469,0,12386
8256.406,0,12386
8260.438,0,12387
8264.375,0,12386
8268.312,0,12386
8272.25,0,12387
8276.219,0,12385
8280.188,0,12385
8284.156,0,12387
8288.125,0,12385
8292.156,0,12385
8296.094,0,12386
8300.031,0,12385
8303.969,0,12385
8307.906,0,12386
8311.875,0,12387
8315.844,0,12386
8319.812,0,12385
8323.875,0,12388
8327.812,0,12388
8331.75,0,12387
8335.688,0,12386
8339.656,0,12387
8343.625,0,12386
8347.594,0,12386
8351.562,0,12386
8355.562,0,12385
8359.5,0,12385
8363.438,0,12387
8367.375,0,12386
8371.438,0,12386
8375.375,0,12385
8379.312,0,12386
8383.25,0,12387
8387.219,0,12386
8391.188,0,12386
8395.156,0,12386
8399.125,0,12385
8403.188,0,12386
8407.125,0,12386
8411.062,0,12386
8415,0,12386
8418.938,0,12385
8422.906,0,12386
8426.875,0,12386
8430.844,0,12385
8434.844,0,12386
8438.781,0,12385
8442.719,0,12386
8446.656,0,12386
8450.625,0,12385
8454.594,0,12387
8458.562,0,12385
8462.531,0,12385
8466.594,0,12385
8470.531,0,12385
8474.469,0,12385
8478.406,0,12385
8482.375,0,12386
8486.344,0,12386
8490.312,0,12385
8494.281,0,12384
8498.281,0,12384
8502.219,0,12386
8506.156,0,12384
8510.094,0,12387
8514.031,0,12385
8518,0,12384
8521.969,0,12386
8525.938,0,12386
8530,0,12384
8533.938,0,12387
8537.875,0,12386
8541.812,0,12385
8545.844,0,12385
8549.781,0,12387
8553.719,0,12386
8557.656,0,12387
8561.625,0,12387
8565.594,0,12385
8569.562,0,12387
8573.531,0,12384
8577.594,0,12387
8581.531,0,12385
8585.469,0,12384
8589.406,0,12385
8593.344,0,12385
8597.312,0,12387
8601.281,0,12386
8605.25,0,12387
8609.281,0,12387
8613.219,0,12386
8617.156,0,12384
8621.094,0,12386
8625.094,0,12386
8629.031,0,12385
8632.969,0,12385
8636.906,0,12383
8640.969,0,12385
8644.906,0,12386
8648.844,0,12386
8652.781,0,12384
8656.75,0,12385
8660.719,0,12385
8664.688,0,12385
8668.656,0,12385
8672.719,0,12384
8676.656,0,12384
8680.594,0,12387
8684.531,0,12387
8688.469,0,12385
8692.438,0,12385
8696.406,0,12386
8700.375,0,12384
8704.375,0,12386
8708.312,0,12385
8712.25,0,12386
8716.188,0,12387
8720.156,0,12385
8724.125,0,12386
8728.094,0,12386
8732.062,0,12387
8736.094,0,12386
8740.031,0,12383
8743.969,0,12388
8747.906,0,12384
8751.875,0,12384
8755.844,0,12384
8759.812,0,12385
8763.781,0,12385
8767.719,0,12384
8771.688,0,12386
8775.656,0,12384
8779.625,0,12385
8783.688,0,12386
8787.625,0,12387
8791.562,0,12386
8795.5,0,12386
8799.5,0,12386
8803.438,0,12384
8807.375,0,12384
8811.312,0,12387
8815.281,0,12386
8819.25,0,12385
8823.219,0,12387
8827.188,0,12385
8831.156,0,12385
8835.125,0,12385
8839.094,0,12385
8843.062,0,12383
8847.031,0,12384
8851,0,12384
8854.969,0,12384
8858.938,0,12386
8863,0,12384
8866.938,0,12385
8870.875,0,12384
8874.812,0,12387
8878.719,0,12386
8882.688,0,12386
8886.656,0,12386
8890.625,0,12386
8894.656,0,12385
8898.594,0,12385
8902.531,0,12384
8906.469,0,12385
8910.531,0,12385
8914.469,0,12386
8918.406,0,12387
8922.344,0,12385
8926.312,0,12384
8930.281,0,12387
8934.25,0,12385
8938.219,0,12385
8942.281,0,12385
8946.219,0,12385
8950.156,0,12385
8954.094,0,12386
8958.031,0,12383
8962,0,12385
8965.969,0,12386
8969.938,0,12386
8973.938,0,12384
8977.875,0,12383
8981.812,0,12386
8985.75,0,12385
8989.719,0,12385
8993.688,0,12385
8997.656,0,12385
9001.625,0,12385
9005.594,0,12384
9009.562,0,12386
9013.531,0,12386
9017.5,0,12384
9021.438,0,12386
9025.406,0,12386
9029.375,0,12386
9033.344,0,12386
9037.406,0,12386
9041.344,0,12385
9045.281,0,12387
9049.219,0,12386
9053.281,0,12385
9057.219,0,12385
9061.156,0,12386
9065.094,0,12386
9069.094,0,12385
9073.031,0,12385
9076.969,0,12386
9080.906,0,12385
9084.938,0,12385
9088.875,0,12384
9092.812,0,12386
9096.75,0,12383
9100.719,0,12386
9104.688,0,12384
9108.656,0,12385
9112.625,0,12386
9116.688,0,12386
9120.625,0,12385
9124.562,0,12385
9128.5,0,12385
9132.469,0,12385
9136.438,0,12385
9140.406,0,12386
9144.375,0,12384
9148.344,0,12387
9152.281,0,12386
9156.219,0,12385
9160.156,0,12385
9164.219,0,12386
9168.156,0,12387
9172.094,0,12387
9176.031,0,12385
9180.062,0,12386
9184,0,12387
9187.938,0,12385
9191.875,0,12385
9195.844,0,12386
9199.812,0,12387
9203.781,0,12384
9207.75,0,12385
9211.812,0,12384
9215.75,0,12386
9219.688,0,12387
9223.625,0,12387
9227.562,0,12383
9231.531,0,12386
9235.5,0,12385
9239.469,0,12384
9243.5,0,12385
9247.438,0,12385
9251.375,0,12386
9255.312,0,12386
9259.25,0,12386
9263.219,0,12385
9267.188,0,12386
9271.156,0,12386
9275.188,0,12385
9279.125,0,12385
9283.062,0,12386
9287,0,12385
9290.969,0,12387
9294.938,0,12387
9298.906,0,12385
9302.875,0,12387
9306.844,0,12386
9310.812,0,12385
9314.781,0,12383
9318.75,0,12384
9322.812,0,12386
9326.75,0,12387
9330.688,0,12386
9334.625,0,12386
9338.625,0,12385
9342.562,0,12386
9346.5,0,12386
9350.438,0,12385
9354.5,0,12387
9358.438,0,12387
9362.375,0,12385
9366.312,0,12384
9370.25,0,12384
9374.219,0,12385
9378.188,0,12384
9382.156,0,12387
9386.188,0,12386
9390.125,0,12385
9394.062,0,12386
9398,0,12385
9401.969,0,12386
9405.938,0,12385
9409.906,0,12385
9413.875,0,12388
9417.875,0,12387
9421.812,0,12386
9425.75,0,12386
9429.688,0,12388
9433.75,0,12384
9437.688,0,12386
9441.625,0,12385
9445.562,0,12383
9449.531,0,12387
9453.5,0,12387
9457.469,0,12385
9461.438,0,12387
9465.469,0,12387
9469.406,0,12386
9473.344,0,12387
9477.281,0,12384
9481.25,0,12384
9485.219,0,12387
9489.188,0,12387
9493.156,0,12385
9497.219,0,12387
9501.156,0,12387
9505.094,0,12387
9509.031,0,12386
9513.031,0,12385
9516.969,0,12387
9520.906,0,12385
9524.844,0,12386
9528.875,0,12388
9532.812,0,12386
9536.75,0,12386
9540.688,0,12387
9544.656,0,12386
9548.625,0,12386
9552.594,0,12386
9556.562,0,12385
9560.594,0,12386
9564.531,0,12386
9568.469,0,12387
9572.406,0,12385
9576.375,0,12386
9580.344,0,12383
9584.312,0,12387
9588.281,0,12386
9592.344,0,12388
9596.281,0,12386
9600.219,0,12387
9604.156,0,12386
9608.156,0,12387
9612.094,0,12385
9616.031,0,12387
9619.969,0,12387
9623.969,0,12384
9627.906,0,12387
9631.844,0,12386
9635.781,0,12387
9639.781,0,12385
9643.75,0,12386
9647.719,0,12386
9651.688,0,12385
9655.719,0,12386
9659.656,0,12386
9663.594,0,12385
9667.531,0,12386
9671.5,0,12385
9675.469,0,12385
9679.438,0,12386
9683.406,0,12386
9687.438,0,12386
9691.375,0,12385
9695.312,0,12386
9699.25,0,12386
9703.281,0,12386
9707.219,0,12385
9711.156,0,12385
9715.094,0,12386
9719.125,0,12385
9723.062,0,12385
9727,0,12388
9730.938,0,12384
9734.906,0,12386
9738.875,0,12385
9742.844,0,12384
9746.812,0,12386
9750.844,0,12386
9754.781,0,12386
9758.719,0,12387
9762.656,0,12386
9766.625,0,12386
9770.594,0,12386
9774.562,0,12386
9778.531,0,12385
9782.562,0,12384
9786.5,0,12385
9790.438,0,12386
9794.375,0,12386
9798.312,0,12388
9802.281,0,12386
9806.25,0,12387
9810.219,0,12385
9814.25,0,12385
9818.188,0,12387
9822.125,0,12384
9826.062,0,12385
9830.031,0,12386
9834,0,12385
9837.969,0,12386
9841.938,0,12385
9845.969,0,12385
9849.906,0,12386
9853.844,0,12388
9857.781,0,12384
9861.75,0,12384
9865.719,0,12386
9869.688,0,12385
9873.656,0,12386
9877.688,0,12386
9881.625,0,12385
9885.562,0,12384
9889.5,0,12387
9893.562,0,12385
9897.5,0,12385
9901.438,0,12386
9905.375,0,12386
9909.281,0,12388
9913.25,0,12386
9917.219,0,12385
9921.188,0,12386
9925.25,0,12385
9929.188,0,12386
9933.125,0,12385
9937.062,0,12386
9941.031,0,12387
9945,0,12386
9948.969,0,12387
9952.938,0,12385
9956.938,0,12386
9960.875,0,12387
9964.812,0,12385
9968.75,0,12386
9972.812,0,12384
9976.75,0,12385
9980.688,0,12386
9984.625,0,12385
9988.656,0,12385
9992.594,0,12385
9996.531,0,12385
10000.469,0,12387
10004.438,0,12385
10008.406,0,12386
10012.375,0,12385
10016.344,0,12386
10020.375,0,12385
10024.312,0,12386
10028.25,0,12386
10032.188,0,12385
10036.219,0,12385
10040.156,0,12386
10044.094,0,12385
10048.031,0,12386
10052.062,0,12386
10056,0,12387
10059.938,0,12387
10063.875,0,12388
10067.906,0,12386
10071.844,0,12385
10075.781,0,12388
10079.719,0,12386
10083.75,0,12387
10087.688,0,12385
10091.625,0,12385
10095.562,0,12385
10099.531,0,12386
10103.5,0,12386
10107.469,0,12386
10111.438,0,12385
10115.469,0,12387
10119.406,0,12386
10123.344,0,12385
10127.281,0,12386
10131.25,0,12386
10135.219,0,12385
10139.188,0,12386
10143.156,0,12389
10147.156,0,12388
10151.094,0,12386
10155.031,0,12387
10158.969,0,12386
10163.031,0,12385
10166.969,0,12384
10170.906,0,12386
10174.844,0,12384
10178.844,0,12388
10182.781,0,12384
10186.719,0,12386
10190.656,0,12386
10194.688,0,12387
10198.656,0,12385
10202.625,0,12386
10206.594,0,12385
10210.562,0,12386
10214.5,0,12387
10218.438,0,12386
10222.375,0,12387
10226.344,0,12385
10230.312,0,12386
10234.281,0,12386
10238.25,0,12385
10242.281,0,12386
10246.219,0,12387
10250.156,0,12386
10254.094,0,12387
10258.031,0,12384
10262,0,12387
10265.969,0,12388
10269.938,0,12385
10273.969,0,12386
10277.906,0,12385
10281.844,0,12386
10285.781,0,12386
10289.719,0,12388
10293.688,0,12384
10297.656,0,12387
10301.625,0,12385
10305.688,0,12388
10309.625,0,12386
10313.562,0,12384
10317.5,0,12387
10321.531,0,12386
10325.469,0,12386
10329.406,0,12388
10333.344,0,12386
10337.375,0,12386
10341.312,0,12385
10345.25,0,12386
10349.188,0,12384
10353.25,0,12385
10357.188,0,12385
10361.125,0,12385
10365.062,0,12385
10369.062,0,12386
10373,0,12385
10376.938,0,12384
10380.875,0,12385
10384.844,0,12385
10388.812,0,12385
10392.781,0,12386
10396.75,0,12385
10400.781,0,12387
10404.719,0,12386
10408.656,0,12388
10412.594,0,12387
10416.625,0,12387
10420.562,0,12385
10424.5,0,12387
10428.438,0,12385
10432.375,0,12386
10436.344,0,12385
10440.312,0,12386
10444.281,0,12385
10448.312,0,12387
10452.25,0,12387
10456.188,0,12386
10460.125,0,12387
10464.156,0,12384
10468.094,0,12386
10472.031,0,12385
10475.969,0,12386
10479.969,0,12387
10483.938,0,12386
10487.906,0,12387
10491.875,0,12385
10495.875,0,12386
10499.812,0,12385
10503.75,0,12386
10507.688,0,12386
10511.719,0,12385
10515.656,0,12386
10519.594,0,12385
10523.531,0,12386
10527.594,0,12385
10531.531,0,12385
10535.469,0,12388
10539.406,0,12387
10543.344,0,12387
10547.312,0,12385
10551.281,0,12384
10555.25,0,12386
10559.312,0,12385
10563.25,0,12386
10567.188,0,12385
10571.125,0,12385
10575.031,0,12386
10579,0,12387
10582.969,0,12387
10586.938,0,12386
10591,0,12387
10594.938,0,12387
10598.875,0,12386
10602.812,0,12387
10606.844,0,12387
10610.781,0,12384
10614.719,0,12385
10618.656,0,12386
10622.719,0,12387
10626.656,0,12386
10630.594,0,12386
10634.531,0,12385
10638.469,0,12384
10642.438,0,12386
10646.406,0,12387
10650.375,0,12386
10654.406,0,12385
10658.344,0,12386
10662.281,0,12384
10666.219,0,12385
10670.25,0,12386
10674.188,0,12385
10678.125,0,12386
10682.062,0,12386
10686,0,12385
10689.969,0,12386
10693.938,0,12385
10697.906,0,12384
10701.938,0,12386
10705.875,0,12386
10709.812,0,12384
10713.75,0,12384
10717.688,0,12386
10721.656,0,12386
10725.625,0,12385
10729.594,0,12387
10733.656,0,12387
10737.594,0,12387
10741.531,0,12385
10745.469,0,12386
10749.438,0,12385
10753.406,0,12385
10757.375,0,12387
10761.344,0,12384
10765.375,0,12387
10769.312,0,12384
10773.25,0,12386
10777.188,0,12383
10781.219,0,12386
10785.156,0,12386
10789.094,0,12387
10793.031,0,12386
10797.062,0,12384
10801,0,12385
10804.938,0,12385
10808.875,0,12387
10812.844,0,12385
10816.812,0,12385
10820.781,0,12385
10824.75,0,12385
10828.781,0,12385
10832.719,0,12386
10836.656,0,12387
10840.594,0,12386
10844.531,0,12385
10848.5,0,12386
10852.469,0,12387
10856.438,0,12385
10860.5,0,12385
10864.438,0,12383
10868.375,0,12385
10872.312,0,12385
10876.312,0,12388
10880.25,0,12384
10884.188,0,12386
10888.125,0,12387
10892.188,0,12386
10896.125,0,12384
10900.062,0,12385
10904,0,12388
10907.938,0,12388
10911.906,0,12386
10915.875,0,12387
10919.844,0,12386
10923.875,0,12387
10927.812,0,12387
10931.75,0,12388
10935.688,0,12384
10939.75,0,12386
10943.688,0,12385
10947.625,0,12388
10951.562,0,12385
10955.531,0,12386
10959.5,0,12386
10963.469,0,12386
10967.438,0,12388
10971.469,0,12387
10975.406,0,12384
10979.344,0,12386
10983.281,0,12386
10987.219,0,12387
10991.188,0,12388
10995.156,0,12386
10999.125,0,12384
11003.188,0,12387
11007.125,0,12386
11011.062,0,12385
11015,0,12386
11018.938,0,12387
11022.906,0,12385
11026.875,0,12387
11030.844,0,12386
11034.938,0,12385
11038.875,0,12387
11042.812,0,12385
11046.75,0,12385
11050.719,0,12387
11054.656,0,12384
11058.594,0,12388
11062.531,0,12386
11066.562,0,12386
11070.5,0,12385
11074.438,0,12386
11078.375,0,12385
11082.375,0,12385
11086.344,0,12385
11090.312,0,12387
11094.281,0,12386
11098.281,0,12384
11102.219,0,12385
11106.156,0,12386
11110.094,0,12386
11114.125,0,12386
11118.062,0,12385
11122,0,12385
11125.938,0,12386
11129.906,0,12386
11133.875,0,12386
11137.844,0,12388
11141.812,0,12386
11145.812,0,12385
11149.75,0,12385
11153.688,0,12386
11157.625,0,12386
11161.688,0,12387
11165.625,0,12385
11169.562,0,12386
11173.5,0,12383
11177.562,0,12385
11181.5,0,12384
11185.438,0,12386
11189.375,0,12385
11193.344,0,12387
11197.312,0,12387
11201.281,0,12386
11205.25,0,12385
11209.188,0,12387
11213.156,0,12384
11217.125,0,12387
11221.094,0,12386
11225.125,0,12384
11229.062,0,12385
11233,0,12387
11236.938,0,12386
11240.969,0,12386
11244.906,0,12388
11248.844,0,12384
11252.781,0,12388
11256.75,0,12385
11260.719,0,12385
11264.688,0,12386
11268.656,0,12385
11272.719,0,12386
11276.656,0,12387
11280.594,0,12387
11284.531,0,12385
11288.469,0,12384
11292.438,0,12386
11296.406,0,12385
11300.375,0,12386
11304.406,0,12385
11308.344,0,12384
11312.281,0,12386
11316.219,0,12383
11320.25,0,12386
11324.188,0,12384
11328.125,0,12386
11332.062,0,12385
11336.094,0,12387
11340.031,0,12385
11343.969,0,12385
11347.906,0,12385
11351.875,0,12385
11355.844,0,12386
11359.812,0,12385
11363.781,0,12385
11367.812,0,12386
11371.75,0,12384
11375.688,0,12388
11379.625,0,12387
11383.594,0,12387
11387.562,0,12386
11391.531,0,12386
11395.5,0,12385
11399.438,0,12386
11403.406,0,12384
11407.375,0,12387
11411.344,0,12385
11415.375,0,12386
11419.312,0,12387
11423.25,0,12386
11427.188,0,12386
11431.156,0,12385
11435.125,0,13436
11439.094,0,12384
11443.062,0,12386
11447.094,0,12386
11451.031,0,12722
11454.969,0,14542
11458.906,0,12384
11462.875,0,12387
11466.844,0,12386
11470.812,0,14038
11474.781,0,12385
11478.812,0,12385
11482.75,0,12386
11486.688,0,12387
11490.625,0,12386
11494.594,0,12387
11498.562,0,12384
11502.531,0,12386
11506.5,0,12385
11510.5,0,12384
11514.438,0,12386
11518.375,0,12385
11522.312,0,12385
11526.281,0,12386
11530.25,0,12385
11534.219,0,14320
11538.188,0,12387
11542.25,0,12385
11546.188,0,12386
11550.125,0,18444
11554.062,0,16534
11558,0,12387
11561.969,0,12388
11565.938,0,17235
11569.906,0,22479
11573.938,0,15326
11577.875,0,12385
11581.812,0,13394
11585.75,0,22618
11589.781,0,20897
11593.719,0,12385
11597.656,0,12386
11601.594,0,18722
11605.625,0,23226
11609.562,0,16880
11613.5,0,12386
11617.438,0,13356
11621.375,0,21145
11625.344,0,20636
11629.312,0,13770
11633.281,0,12848
11637.344,0,16532
11641.281,0,20304
11645.219,0,19236
11649.156,0,16297
11653.125,0,16366
11657.094,0,16943
11661.062,0,18712
11665.031,0,21786
11669.062,0,19694
11673,0,15574
11676.938,0,14713
11680.875,0,20790
11684.875,0,25614
11688.812,0,19371
11692.75,0,12385
11696.688,0,16391
11700.75,0,26372
11704.688,0,26127
11708.625,0,14803
11712.562,0,12387
11716.531,0,22349
11720.5,0,30343
11724.469,0,22141
11728.438,0,12386
11732.5,0,16319
11736.438,0,28880
11740.375,0,28231
11744.312,0,16726
11748.219,0,13685
11752.188,0,23778
11756.156,0,28968
11760.125,0,22566
11764.156,0,15737
11768.094,0,19367
11772.031,0,25566
11775.969,0,24421
11780.031,0,20570
11783.969,0,20585
11787.906,0,21228
11791.844,0,22459
11795.875,0,23300
11799.812,0,24578
11803.75,0,22582
11807.688,0,18223
11811.656,0,20920
11815.625,0,28402
11819.594,0,27266
11823.562,0,19447
11827.594,0,16253
11831.531,0,25736
11835.469,0,32860
11839.406,0,24173
11843.469,0,14783
11847.406,0,20230
11851.344,0,32154
11855.281,0,31563
11859.188,0,18224
11863.156,0,14689
11867.125,0,26678
11871.094,0,33500
11875.188,0,25509
11879.125,0,15911
11883.062,0,20079
11887,0,30652
11890.969,0,29903
11894.906,0,21076
11898.844,0,19077
11902.781,0,25389
11906.75,0,29698
11910.719,0,26917
11914.688,0,22069
11918.656,0,23127
11922.719,0,25716
11926.656,0,26840
11930.594,0,26840
11934.531,0,25309
11938.438,0,22706
11942.406,0,23465
11946.375,0,27244
11950.344,0,30298
11954.375,0,25870
11958.312,0,19686
11962.25,0,23605
11966.188,0,31961
11970.219,0,31419
11974.156,0,22181
11978.094,0,17786
11982.031,0,27825
11986,0,35693
11989.969,0,27809
11993.938,0,17539
11997.906,0,20953
12001.969,0,33474
12005.906,0,35038
12009.844,0,21745
12013.781,0,17439
12017.719,0,27415
12021.688,0,35560
12025.656,0,28986
12029.625,0,19305
12033.656,0,22175
12037.594,0,32117
12041.531,0,31910
12045.469,0,24784
12049.5,0,22007
12053.438,0,26602
12057.375,0,30175
12061.312,0,28391
12065.344,0,26046
12069.281,0,26438
12073.219,0,25719
12077.156,0,26648
12081.125,0,29944
12085.094,0,30148
12089.062,0,25064
12093.031,0,22135
12097.062,0,27798
12101,0,35077
12104.938,0,29264
12108.875,0,19576
12112.844,0,22494
12116.812,0,34242
12120.781,0,35425
12124.75,0,23222
12128.781,0,17122
12132.719,0,29252
12136.656,0,38231
12140.594,0,30161
12144.594,0,18950
12148.531,0,22271
12152.469,0,35234
12156.406,0,35894
12160.375,0,23826
12164.344,0,20665
12168.312,0,28904
12172.281,0,35104
12176.344,0,29938
12180.281,0,22598
12184.219,0,25116
12188.156,0,30529
12192.188,0,30479
12196.125,0,28111
12200.062,0,26543
12204,0,27322
12207.938,0,28686
12211.906,0,30444
12215.875,0,31716
12219.844,0,28938
12223.844,0,24219
12227.781,0,26719
12231.719,0,33036
12235.656,0,32822
12239.688,0,24611
12243.625,0,20985
12247.562,0,29155
12251.5,0,37224
12255.469,0,30411
12259.438,0,20484
12263.406,0,23513
12267.375,0,35504
12271.344,0,37226
12275.312,0,25342
12279.281,0,19648
12283.25,0,29873
12287.281,0,38222
12291.219,0,31995
12295.156,0,20412
12299.094,0,21647
12303.156,0,33093
12307.094,0,34967
12311.031,0,25659
12314.969,0,21848
12318.969,0,27380
12322.906,0,34620
12326.844,0,31648
12330.781,0,25791
12334.812,0,26867
12338.75,0,29953
12342.688,0,30688
12346.625,0,30195
12350.562,0,28660
12354.531,0,27752
12358.5,0,26334
12362.469,0,29222
12366.531,0,33484
12370.469,0,30467
12374.406,0,23535
12378.344,0,25086
12382.312,0,33938
12386.281,0,37109
12390.25,0,27163
12394.219,0,20200
12398.25,0,28888
12402.188,0,39478
12406.125,0,33132
12410.062,0,20527
12414.094,0,21630
12418.031,0,35990
12421.969,0,39136
12425.906,0,25938
12429.844,0,19551
12433.812,0,29655
12437.781,0,38629
12441.75,0,33115
12445.781,0,22342
12449.719,0,24487
12453.656,0,33746
12457.594,0,34203
12461.562,0,27660
12465.531,0,25034
12469.5,0,28230
12473.469,0,31978
12477.5,0,30191
12481.438,0,29036
12485.375,0,29050
12489.312,0,27416
12493.281,0,28721
12497.25,0,32812
12501.219,0,33214
12505.188,0,28202
12509.188,0,23366
12513.125,0,29755
12517.062,0,37320
12521,0,32152
12524.969,0,22568
12528.938,0,23874
12532.906,0,35090
12536.875,0,38085
12540.906,0,26305
12544.844,0,19608
12548.781,0,29052
12552.719,0,39292
12556.781,0,34059
12560.719,0,22233
12564.656,0,22985
12568.594,0,35461
12572.531,0,38098
12576.5,0,27592
12580.469,0,21674
12584.438,0,28440
12588.438,0,36053
12592.375,0,33215
12596.312,0,24908
12600.25,0,25828
12604.312,0,31578
12608.25,0,33576
12612.188,0,30775
12616.125,0,27854
12620.156,0,28378
12624.094,0,30262
12628.031,0,30729
12631.969,0,32037
12635.906,0,30169
12639.875,0,26249
12643.844,0,27515
12647.812,0,32963
12652,0,35102
12655.938,0,28721
12659.875,0,22165
12663.812,0,28977
12667.656,0,38017
12671.625,0,34352
12675.594,0,23276
12679.562,0,22605
12683.562,0,35014
12687.5,0,40134
12691.438,0,27772
12695.375,0,19791
12699.406,0,27646
12703.344,0,39613
12707.281,0,35440
12711.219,0,22696
12715.188,0,22882
12719.156,0,35320
12723.125,0,38487
12727.094,0,29313
12731.156,0,23450
12735.094,0,29296
12739.031,0,35760
12742.969,0,32618
12746.906,0,26892
12750.875,0,28040
12754.844,0,30538
12758.812,0,31232
12762.781,0,31277
12766.75,0,31077
12770.719,0,29491
12774.688,0,27209
12778.688,0,29626
12782.625,0,35997
12786.562,0,33227
12790.5,0,25289
12794.438,0,24909
12798.406,0,34189
12802.375,0,38490
12806.344,0,28569
12810.406,0,19991
12814.344,0,28814
12818.281,0,39635
12822.219,0,35332
12826.188,0,22423
12830.156,0,22065
12834.125,0,36119
12838.094,0,40460
12842.125,0,28602
12846.062,0,21187
12850,0,28337
12853.938,0,38399
12857.875,0,34726
12861.844,0,24270
12865.812,0,24879
12869.781,0,33169
12873.812,0,35592
12877.75,0,30322
12881.688,0,25978
12885.625,0,28835
12889.562,0,32175
12893.531,0,32047
12897.5,0,30529
12901.469,0,29790
12905.531,0,28200
12909.469,0,29415
12913.406,0,32556
12917.344,0,33720
12921.312,0,29430
12925.281,0,24932
12929.25,0,29414
12933.219,0,37295
12937.281,0,34015
12941.219,0,24992
12945.156,0,23977
12949.094,0,34480
12953.094,0,40198
12957.031,0,30067
12960.969,0,21204
12964.906,0,28396
12968.938,0,39219
12972.875,0,36858
12976.812,0,23450
12980.75,0,21710
12984.719,0,34598
12988.688,0,39889
12992.656,0,29875
12996.625,0,21873
13000.594,0,27383
13004.562,0,37740
13008.531,0,34778
13012.5,0,25861
13016.531,0,25885
13020.469,0,32380
13024.406,0,34920
13028.344,0,31505
13032.406,0,28357
13036.344,0,30167
13040.281,0,30752
13044.219,0,31001
13048.219,0,32625
13052.156,0,32153
13056.094,0,27790
13060.031,0,26885
13064.094,0,32397
13068.031,0,36894
13071.969,0,30205
13075.906,0,22122
13079.844,0,27604
13083.812,0,38846
13087.781,0,36274
13091.75,0,24138
13095.781,0,21631
13099.719,0,35002
13103.656,0,41591
13107.594,0,29793
13111.562,0,20270
13115.531,0,27871
13119.5,0,39813
13123.469,0,37320
13127.5,0,24069
13131.438,0,23430
13135.375,0,34691
13139.312,0,38592
13143.344,0,30944
13147.281,0,24577
13151.219,0,28716
13155.156,0,35565
13159.188,0,33131
13163.125,0,29029
13167.062,0,28763
13171,0,30178
13174.969,0,31737
13178.938,0,32446
13182.906,0,32217
13186.875,0,30096
13190.906,0,26826
13194.844,0,30291
13198.781,0,35864
13202.719,0,33888
13206.688,0,26735
13210.656,0,25605
13214.625,0,34357
13218.594,0,39707
13222.625,0,31041
13226.562,0,22236
13230.5,0,28032
13234.438,0,38844
13238.375,0,36636
13242.344,0,24422
13246.312,0,21567
13250.281,0,34102
13254.344,0,40409
13258.281,0,31235
13262.219,0,22591
13266.156,0,27620
13270.094,0,37977
13274.062,0,37296
13278.031,0,26128
13282,0,24558
13286.094,0,32334
13290.062,0,36899
13294.031,0,31721
13298,0,25459
13301.875,0,27842
13305.812,0,32648
13309.75,0,32063
13313.688,0,30729
13317.719,0,29724
13321.656,0,29223
13325.594,0,29759
13329.531,0,31979
13333.5,0,34518
13337.469,0,31400
13341.438,0,25456
13345.406,0,28877
13349.438,0,36104
13353.375,0,35830
13357.312,0,26315
13361.25,0,22845
13365.188,0,33244
13369.156,0,41360
13373.125,0,32006
13377.094,0,21343
13381.156,0,26149
13385.094,0,39776
13389.031,0,38815
13392.969,0,24763
13396.938,0,21277
13400.906,0,34218
13404.875,0,40919
13408.844,0,31849
13412.875,0,22635
13416.812,0,27597
13420.75,0,37648
13424.688,0,35969
13428.625,0,27141
13432.594,0,26557
13436.562,0,31552
13440.531,0,34442
13444.469,0,31989
13448.438,0,29382
13452.406,0,30300
13456.375,0,30151
13460.438,0,30650
13464.375,0,34001
13468.312,0,32625
13472.25,0,28049
13476.219,0,26462
13480.188,0,32906
13484.156,0,38269
13488.125,0,31394
13492.125,0,22698
13496.062,0,27863
13500,0,38357
13503.938,0,37756
13507.906,0,25602
13511.875,0,21806
13515.844,0,33860
13519.812,0,41252
13523.812,0,32077
13527.75,0,21799
13531.688,0,26360
13535.625,0,38946
13539.625,0,38206
13543.594,0,26106
13547.562,0,23144
13551.531,0,32752
13555.562,0,38654
13559.5,0,32726
13563.438,0,24855
13567.375,0,27574
13571.344,0,34487
13575.312,0,34865
13579.281,0,30364
13583.25,0,28973
13587.281,0,30217
13591.219,0,32765
13595.156,0,32749
13599.094,0,32011
13603.156,0,30389
13607.094,0,27578
13611.031,0,29700
13614.969,0,35253
13618.875,0,34347
13622.844,0,28471
13626.812,0,25222
13630.781,0,32750
13634.844,0,39985
13638.781,0,33029
13642.719,0,23108
13646.656,0,26448
13650.625,0,38013
13654.594,0,39460
13658.562,0,26102
13662.531,0,20847
13666.562,0,32287
13670.5,0,41083
13674.438,0,33084
13678.375,0,22078
13682.438,0,25757
13686.375,0,38990
13690.312,0,38781
13694.25,0,27578
13698.25,0,24026
13702.188,0,32121
13706.125,0,37463
13710.062,0,32572
13714.094,0,26400
13718.031,0,29146
13721.969,0,33075
13725.906,0,32819
13729.875,0,31546
13733.844,0,31372
13737.812,0,30122
13741.781,0,29631
13745.75,0,32064
13749.719,0,35793
13753.688,0,32115
13757.656,0,24846
13761.688,0,27348
13765.625,0,36532
13769.562,0,36865
13773.5,0,27076
13777.531,0,21755
13781.469,0,32571
13785.406,0,41447
13789.344,0,32825
13793.312,0,21685
13797.281,0,25625
13801.25,0,39045
13805.219,0,40212
13809.25,0,26299
13813.188,0,22341
13817.125,0,33195
13821.062,0,40732
13825,0,33921
13828.969,0,23952
13832.938,0,26784
13836.906,0,36368
13840.969,0,36242
13844.906,0,29417
13848.844,0,26453
13852.781,0,30241
13856.812,0,34096
13860.75,0,32808
13864.688,0,29918
13868.625,0,29483
13872.688,0,29219
13876.625,0,31348
13880.562,0,34186
13884.5,0,33141
13888.438,0,28499
13892.406,0,26888
13896.375,0,32431
13900.344,0,37969
13904.375,0,32364
13908.312,0,24061
13912.25,0,27048
13916.188,0,37320
13920.156,0,38607
13924.125,0,27767
13928.094,0,21572
13932.062,0,31945
13936.094,0,40905
13940.031,0,34444
13943.969,0,23039
13947.906,0,24766
13951.938,0,37608
13955.875,0,40130
13959.812,0,27765
13963.75,0,22685
13967.781,0,30606
13971.719,0,39059
13975.656,0,34460
13979.594,0,25270
13983.625,0,27244
13987.562,0,34739
13991.5,0,35184
13995.438,0,30737
13999.438,0,27685
14003.406,0,30115
14007.375,0,32283
14011.344,0,32076
14015.281,0,32461
14019.25,0,31459
14023.219,0,28028
14027.188,0,29347
14031.188,0,34523
14035.125,0,36147
14039.062,0,29111
14043,0,23947
14046.969,0,30887
14050.938,0,40095
14054.906,0,34109
14058.875,0,22999
14062.938,0,24705
14066.875,0,38069
14070.812,0,40921
14074.75,0,27975
14078.688,0,20918
14082.656,0,31973
14086.625,0,41338
14090.594,0,34516
14094.688,0,22711
14098.625,0,24893
14102.562,0,37260
14106.5,0,38259
14110.406,0,28108
14114.375,0,24626
14118.344,0,30940
14122.312,0,37154
14126.312,0,33526
14130.25,0,27878
14134.188,0,29480
14138.125,0,32357
14142.094,0,33045
14146.062,0,33060
14150.031,0,31230
14154,0,29667
14158.031,0,28413
14161.969,0,31933
14165.906,0,36024
14169.844,0,32160
14173.781,0,25470
14177.75,0,27680
14181.719,0,36131
14185.688,0,38086
14189.75,0,28211
14193.688,0,22438
14197.625,0,31438
14201.562,0,40910
14205.531,0,35305
14209.5,0,23902
14213.469,0,25083
14217.438,0,38014
14221.469,0,41115
14225.406,0,28978
14229.344,0,22190
14233.281,0,30535
14237.219,0,39276
14241.188,0,35518
14245.156,0,24953
14249.125,0,25776
14253.094,0,35262
14257.062,0,37584
14261.031,0,31197
14265,0,26916
14269.031,0,29312
14272.969,0,34782
14276.906,0,33290
14280.844,0,30163
14284.812,0,29924
14288.781,0,29849
14292.75,0,30681
14296.719,0,32486
14300.719,0,32351
14304.656,0,29496
14308.594,0,25867
14312.531,0,30626
14316.5,0,37602
14320.469,0,34281
14324.438,0,25635
14328.406,0,25740
14332.469,0,35947
14336.406,0,40378
14340.344,0,29194
14344.281,0,21265
14348.219,0,29735
14352.188,0,41229
14356.156,0,36405
14360.125,0,23385
14364.156,0,23461
14368.094,0,37564
14372.031,0,40918
14375.969,0,29217
14379.938,0,22398
14383.906,0,30482
14387.875,0,39035
14391.844,0,34947
14395.844,0,25754
14399.781,0,27408
14403.719,0,34194
14407.656,0,35318
14411.719,0,31770
14415.656,0,29747
14419.594,0,30960
14423.531,0,32262
14427.5,0,31907
14431.469,0,33501
14435.438,0,32142
14439.406,0,27583
14443.469,0,28378
14447.406,0,34344
14451.344,0,36421
14455.281,0,29665
14459.219,0,23034
14463.188,0,30875
14467.156,0,40168
14471.125,0,35368
14475.062,0,24447
14479.031,0,24745
14483,0,37294
14486.969,0,41221
14491,0,28893
14494.938,0,21784
14498.875,0,30336
14502.812,0,40921
14506.844,0,36628
14510.781,0,24539
14514.719,0,24664
14518.656,0,36022
14522.625,0,39009
14526.594,0,30557
14530.562,0,24526
14534.531,0,29396
14538.562,0,36201
14542.5,0,34666
14546.438,0,28751
14550.375,0,28574
14554.344,0,31336
14558.312,0,33614
14562.281,0,33461
14566.25,0,31493
14570.281,0,29968
14574.219,0,29566
14578.156,0,32061
14582.094,0,36221
14586.031,0,33325
14590,0,27117
14593.969,0,27423
14597.938,0,34990
14602,0,38825
14605.938,0,30736
14609.875,0,22576
14613.812,0,29862
14617.844,0,39992
14621.781,0,37194
14625.719,0,24918
14629.656,0,23117
14633.594,0,36173
14637.562,0,41956
14641.531,0,30467
14645.5,0,22123
14649.469,0,28486
14653.438,0,40378
14657.406,0,37433
14661.375,0,25605
14665.406,0,25368
14669.344,0,35280
14673.281,0,38438
14677.219,0,31755
14681.188,0,26359
14685.156,0,30393
14689.125,0,34921
14693.094,0,33266
14697.125,0,30534
14701.062,0,30873
14705,0,30416
14708.938,0,30828
14713,0,32998
14716.938,0,34843
14720.875,0,31311
14724.812,0,26460
14728.75,0,30045
14732.719,0,38575
14736.688,0,35782
14740.656,0,26299
14744.594,0,24857
14748.562,0,35822
14752.531,0,41393
14756.5,0,30571
14760.531,0,21439
14764.469,0,29586
14768.406,0,40980
14772.344,0,37676
14776.312,0,24199
14780.281,0,23008
14784.25,0,36263
14788.219,0,40558
14792.281,0,30430
14796.219,0,23252
14800.156,0,29167
14804.094,0,38729
14808.031,0,35831
14812,0,27301
14815.969,0,27266
14819.938,0,32874
14823.969,0,35445
14827.906,0,32711
14831.844,0,29186
14835.781,0,30265
14839.812,0,31194
14843.75,0,32640
14847.688,0,33820
14851.625,0,32073
14855.656,0,28325
14859.594,0,29014
14863.531,0,34272
14867.469,0,36989
14871.438,0,30682
14875.406,0,24302
14879.375,0,29833
14883.344,0,39141
14887.406,0,36426
14891.344,0,25767
14895.281,0,23613
14899.219,0,35088
14903.156,0,41387
14907.125,0,31183
14911.094,0,21820
14915.062,0,28079
14919.094,0,39452
14923.031,0,38519
14926.969,0,25482
14930.906,0,23352
14934.969,0,34476
14938.906,0,40108
14942.844,0,32396
14946.781,0,24557
14950.688,0,28325
14954.656,0,37227
14958.625,0,35356
14962.594,0,29115
14966.562,0,28210
14970.531,0,31602
14974.5,0,33925
14978.469,0,32774
14982.531,0,31452
14986.469,0,31239
14990.406,0,29188
14994.344,0,31076
14998.281,0,35359
15002.25,0,34539
15006.219,0,28146
15010.188,0,25951
15014.219,0,33398
15018.156,0,39762
15022.094,0,31966
15026.031,0,22644
15030.062,0,27894
15034,0,40206
15037.938,0,38561
15041.875,0,25356
15045.812,0,21793
15049.781,0,35342
15053.75,0,42336
15057.719,0,31806
15061.781,0,22007
15065.719,0,28154
15069.656,0,39700
15073.594,0,37898
15077.656,0,25897
15081.594,0,25104
15085.531,0,34078
15089.469,0,37856
15093.406,0,32278
15097.375,0,26712
15101.344,0,29861
15105.312,0,34434
15109.312,0,32870
15113.25,0,31468
15117.188,0,30626
15121.125,0,29769
15125.094,0,30612
15129.062,0,33199
15133.031,0,35070
15137,0,31226
15141.031,0,25745
15144.969,0,30130
15148.906,0,37418
15152.844,0,35701
15156.812,0,26520
15160.781,0,24081
15164.75,0,34331
15168.719,0,40993
15172.75,0,31930
15176.688,0,22642
15180.625,0,28032
15184.562,0,40263
15188.5,0,39208
15192.469,0,26318
15196.438,0,22840
15200.406,0,34568
15204.438,0,41402
15208.375,0,33740
15212.312,0,24469
15216.25,0,28189
15220.219,0,38388
15224.188,0,38269
15228.156,0,28952
15232.125,0,26522
15236.156,0,31219
15240.094,0,36006
15244.031,0,33807
15247.969,0,29137
15251.938,0,29835
15255.906,0,31941
15259.875,0,32979
15263.844,0,34606
15267.875,0,32601
15271.812,0,29343
15275.75,0,28817
15279.688,0,33369
15283.719,0,37799
15287.656,0,32678
15291.594,0,24637
15295.531,0,28229
15299.562,0,37131
15303.5,0,37880
15307.438,0,26619
15311.375,0,21812
15315.406,0,33083
15319.344,0,42119
15323.281,0,33477
15327.219,0,22191
15331.188,0,25954
15335.156,0,40121
15339.125,0,40366
15343.094,0,26865
15347.062,0,22791
15351.031,0,33724
15355,0,40609
15358.969,0,33534
15363.031,0,24676
15366.969,0,28346
15370.906,0,36435
15374.844,0,35716
15378.812,0,29676
15382.75,0,28706
15386.688,0,31140
15390.625,0,33438
15394.688,0,32870
15398.625,0,32543
15402.562,0,31611
15406.5,0,28701
15410.469,0,30252
15414.438,0,36055
15418.406,0,35196
15422.375,0,28676
15426.438,0,25307
15430.375,0,33336
15434.312,0,40575
15438.25,0,33038
15442.188,0,23356
15446.156,0,27790
15450.125,0,39497
15454.094,0,39983
15458.125,0,26860
15462.062,0,22294
15466,0,34167
15469.938,0,41860
15473.938,0,33800
15477.875,0,23083
15481.812,0,26504
15485.75,0,38767
15489.719,0,38480
15493.688,0,28055
15497.656,0,24783
15501.625,0,32384
15505.594,0,38279
15509.562,0,34275
15513.531,0,27486
15517.5,0,29187
15521.469,0,33768
15525.438,0,34802
15529.406,0,32535
15533.375,0,30606
15537.406,0,29833
15541.344,0,31190
15545.281,0,33279
15549.219,0,34978
15553.188,0,31862
15557.156,0,26880
15561.125,0,29648
15565.094,0,36814
15569.094,0,36641
15573.031,0,28746
15576.969,0,24012
15580.906,0,32998
15584.844,0,41503
15588.812,0,34469
15592.781,0,23450
15596.75,0,25823
15600.812,0,38578
15604.75,0,41324
15608.688,0,27615
15612.625,0,21852
15616.594,0,32234
15620.562,0,41715
15624.531,0,35182
15628.5,0,23683
15632.562,0,25921
15636.5,0,37806
15640.438,0,38244
15644.375,0,29340
15648.344,0,25575
15652.281,0,31572
15656.219,0,36705
15660.156,0,33540
15664.219,0,29302
15668.156,0,30703
15672.094,0,31978
15676.031,0,32506
15680.062,0,33678
15684.031,0,33750
15688,0,30431
15691.969,0,27936
15695.875,0,32175
15699.844,0,38535
15703.812,0,34075
15707.781,0,25071
15711.75,0,26927
15715.719,0,37829
15719.688,0,39558
15723.656,0,28210
15727.719,0,21337
15731.656,0,32486
15735.594,0,42190
15739.531,0,34626
15743.531,0,22722
15747.469,0,25517
15751.406,0,39273
15755.344,0,41010
15759.406,0,27622
15763.344,0,23273
15767.281,0,32580
15771.219,0,40158
15775.156,0,34706
15779.125,0,25551
15783.094,0,28067
15787.062,0,35517
15791.031,0,35526
15795,0,31029
15798.969,0,28520
15802.938,0,30729
15807.125,0,33099
15811.062,0,32949
15815,0,32678
15818.938,0,31512
15822.75,0,28862
15826.719,0,30818
15830.688,0,35294
15834.656,0,35683
15838.688,0,29407
15842.625,0,25662
15846.562,0,32341
15850.5,0,39875
15854.531,0,34159
15858.469,0,24253
15862.406,0,25955
15866.344,0,37490
15870.312,0,40007
15874.281,0,28255
15878.25,0,21497
15882.219,0,31718
15886.25,0,41287
15890.188,0,35649
15894.125,0,23822
15898.062,0,25037
15902.031,0,37605
15906,0,39985
15909.969,0,28883
15913.938,0,23908
15917.969,0,30582
15921.906,0,38486
15925.844,0,34514
15929.781,0,26740
15933.812,0,28367
15937.75,0,33531
15941.688,0,34047
15945.625,0,31859
15949.594,0,29607
15953.562,0,30599
15957.531,0,30587
15961.5,0,31896
15965.469,0,34803
15969.438,0,32813
15973.406,0,27099
15977.375,0,28056
15981.406,0,35102
15985.344,0,38141
15989.281,0,29429
15993.219,0,22786
15997.188,0,30832
16001.156,0,41389
16005.125,0,35791
16009.094,0,23391
16013.125,0,24051
16017.062,0,38083
16021,0,41465
16024.938,0,28339
16028.969,0,21210
16032.906,0,31619
16036.844,0,41316
16040.781,0,35680
16044.75,0,24283
16048.719,0,26282
16052.688,0,37152
16056.656,0,38093
16060.688,0,29831
16064.625,0,26519
16068.562,0,31022
16072.5,0,35833
16076.469,0,33001
16080.438,0,29900
16084.406,0,30793
16088.375,0,30795
16092.406,0,31205
16096.344,0,33468
16100.281,0,33424
16104.219,0,30448
16108.25,0,26942
16112.188,0,31748
16116.125,0,38271
16120.062,0,34127
16124.094,0,25718
16128.031,0,26697
16131.969,0,36529
16135.906,0,39677
16139.875,0,28924
16143.844,0,22072
16147.812,0,31074
16151.781,0,41043
16155.75,0,35787
16159.719,0,23637
16163.688,0,24252
16167.656,0,37347
16171.688,0,40570
16175.625,0,29589
16179.562,0,23226
16183.5,0,31046
16187.5,0,39612
16191.438,0,36148
16195.375,0,26471
16199.312,0,27313
16203.312,0,34773
16207.281,0,37003
16211.25,0,32361
16215.219,0,28996
16219.156,0,30633
16223.125,0,34105
16227.094,0,33231
16231.062,0,32503
16235.094,0,31469
16239.031,0,28729
16242.969,0,29681
16246.906,0,33524
16250.875,0,35142
16254.844,0,30675
16258.812,0,24935
16262.781,0,31009
16266.812,0,39388
16270.75,0,35511
16274.688,0,25165
16278.625,0,24690
16282.688,0,36391
16286.625,0,41830
16290.562,0,30044
16294.5,0,21443
16298.5,0,29063
16302.438,0,40795
16306.375,0,36439
16310.312,0,23204
16314.312,0,23108
16318.281,0,36582
16322.25,0,39959
16326.219,0,29600
16330.156,0,23194
16334.125,0,30395
16338.094,0,38314
16342.062,0,34773
16346.094,0,27422
16350.031,0,28841
16353.969,0,33354
16357.906,0,34161
16361.938,0,32470
16365.875,0,31514
16369.812,0,31348
16373.75,0,30483
16377.781,0,31495
16381.719,0,35692
16385.656,0,33738
16389.594,0,27348
16393.531,0,27355
16397.5,0,35064
16401.469,0,38596
16405.438,0,30295
16409.5,0,22195
16413.438,0,30599
16417.375,0,40884
16421.312,0,36634
16425.281,0,24581
16429.25,0,24030
16433.219,0,37226
16437.188,0,41663
16441.156,0,29838
16445.125,0,22625
16449.094,0,30187
16453.062,0,40485
16457.062,0,36799
16461,0,25698
16464.938,0,26234
16468.875,0,35906
16472.844,0,38653
16476.812,0,32119
16480.781,0,26853
16484.75,0,30367
16488.688,0,35093
16492.656,0,33870
16496.625,0,30276
16500.594,0,29824
16504.656,0,30254
16508.594,0,32066
16512.531,0,33670
16516.469,0,33448
16520.438,0,30407
16524.406,0,27670
16528.375,0,31204
16532.344,0,37448
16536.344,0,34468
16540.281,0,26905
16544.219,0,26380
16548.156,0,35343
16552.25,0,40127
16556.188,0,31133
16560.125,0,22820
16564.062,0,30283
16568.062,0,40868
16572,0,38356
16575.938,0,25520
16579.875,0,23507
16583.812,0,36282
16587.781,0,41413
16591.75,0,30620
16595.719,0,22787
16599.688,0,28833
16603.656,0,40069
16607.625,0,36992
16611.594,0,26465
16615.656,0,26612
16619.594,0,34713
16623.531,0,37205
16627.469,0,32061
16631.5,0,28026
16635.438,0,31480
16639.375,0,33868
16643.312,0,33061
16647.344,0,33196
16651.281,0,33784
16655.219,0,31463
16659.156,0,30921
16663.125,0,35020
16667.094,0,37634
16671.062,0,31753
16675.031,0,24660
16679.062,0,28951
16683,0,39704
16686.938,0,37988
16690.875,0,27135
16694.844,0,24970
16698.812,0,37652
16702.781,0,44212
16706.75,0,32735
16710.781,0,23112
16714.719,0,31494
16718.656,0,43305
16722.594,0,38546
16726.625,0,22010
16730.562,0,21474
16734.5,0,35616
16738.438,0,39351
16742.5,0,29729
16746.438,0,23726
16750.375,0,29531
16754.312,0,36530
16758.25,0,32425
16762.219,0,26291
16766.188,0,27325
16770.156,0,30517
16774.188,0,30646
16778.125,0,28804
16782.062,0,28514
16786,0,29198
16789.969,0,26855
16793.938,0,28136
16797.906,0,32795
16801.875,0,32496
16805.812,0,26479
16809.781,0,24628
16813.75,0,32051
16817.719,0,38038
16821.781,0,31065
16825.719,0,22416
16829.656,0,27840
16833.594,0,39119
16837.531,0,37352
16841.5,0,25261
16845.469,0,22686
16849.438,0,35705
16853.406,0,42493
16857.375,0,32502
16861.344,0,23579
16865.312,0,30503
16869.344,0,41564
16873.281,0,39510
16877.219,0,27351
16881.156,0,26819
16885.125,0,36259
16889.094,0,38792
16893.062,0,29907
16897.031,0,23077
16901.031,0,27709
16904.969,0,34266
16908.906,0,31266
16912.844,0,27693
16916.812,0,28657
16920.781,0,30154
16924.75,0,29617
16928.719,0,29159
16932.75,0,31192
16936.688,0,30590
16940.625,0,25616
16944.562,0,27456
16948.531,0,34444
16952.5,0,35353
16956.469,0,27468
16960.438,0,24182
16964.406,0,33842
16968.375,0,42273
16972.344,0,33649
16976.312,0,22999
16980.344,0,28220
16984.281,0,41895
16988.219,0,40265
16992.156,0,25678
16996.156,0,21997
17000.094,0,35663
17004.031,0,41398
17007.969,0,30019
17012.031,0,20686
17015.969,0,27910
17019.906,0,39019
17023.844,0,35819
17027.781,0,25206
17031.75,0,26328
17035.719,0,34482
17039.688,0,36424
17043.75,0,31240
17047.688,0,28459
17051.625,0,32282
17055.562,0,33918
17059.5,0,31502
17063.469,0,33100
17067.438,0,34194
17071.406,0,31655
17075.438,0,29744
17079.375,0,33769
17083.312,0,38851
17087.25,0,34450
17091.281,0,26467
17095.219,0,30823
17099.156,0,40347
17103.094,0,40017
17107.062,0,29492
17111.031,0,26154
17115,0,37749
17118.969,0,44929
17122.938,0,35503
17126.906,0,25707
17130.875,0,31052
17134.844,0,43891
17138.875,0,43026
17142.812,0,29954
17146.75,0,25754
17150.688,0,35449
17154.719,0,41581
17158.656,0,35042
17162.594,0,25614
17166.531,0,27184
17170.562,0,35855
17174.5,0,37725
17178.438,0,31604
17182.375,0,28039
17186.406,0,30012
17190.344,0,35816
17194.281,0,36907
17198.219,0,32836
17202.219,0,29546
17206.188,0,29920
17210.156,0,35150
17214.125,0,39598
17218.062,0,34525
17222.031,0,28299
17226,0,29126
17229.969,0,37389
17234,0,40746
17237.938,0,30972
17241.875,0,23603
17245.812,0,30973
17249.75,0,40835
17253.719,0,39885
17257.688,0,27447
17261.656,0,23096
17265.688,0,33872
17269.625,0,41963
17273.562,0,36011
17277.5,0,26566
17281.562,0,27009
17285.5,0,38105
17289.438,0,40711
17293.375,0,30968
17297.344,0,23803
17301.312,0,28218
17305.281,0,37391
17309.25,0,38513
17313.281,0,29958
17317.219,0,25870
17321.156,0,30980
17325.094,0,38053
17329.062,0,37211
17333.031,0,28914
17337,0,24038
17340.969,0,31016
17344.969,0,38733
17348.906,0,36992
17352.844,0,27363
17356.781,0,23559
17360.844,0,33210
17364.781,0,41678
17368.719,0,35197
17372.656,0,25427
17376.625,0,25596
17380.594,0,37580
17384.562,0,42189
17388.531,0,31047
17392.594,0,22891
17396.531,0,28439
17400.469,0,38892
17404.406,0,39327
17408.344,0,27716
17412.312,0,23456
17416.281,0,31901
17420.25,0,39537
17424.281,0,36493
17428.219,0,26667
17432.156,0,24086
17436.094,0,33518
17440.156,0,39443
17444.094,0,35086
17448.031,0,26393
17451.969,0,25583
17455.969,0,35218
17459.906,0,41172
17463.844,0,33803
17467.781,0,25454
17471.75,0,26790
17475.719,0,37331
17479.688,0,40517
17483.656,0,30479
17487.625,0,22985
17491.594,0,28870
17495.562,0,38676
17499.531,0,38391
17503.594,0,27457
17507.531,0,22485
17511.469,0,31612
17515.406,0,39966
17519.344,0,35566
17523.312,0,25679
17527.281,0,23609
17531.25,0,34402
17535.25,0,40689
17539.188,0,33577
17543.125,0,24778
17547.062,0,25964
17551.031,0,36419
17555,0,40872
17558.969,0,30663
17562.938,0,23733
17567,0,28155
17570.938,0,38322
17574.875,0,39173
17578.812,0,28475
17582.75,0,23547
17586.719,0,31484
17590.688,0,39375
17594.656,0,37275
17598.625,0,27140
17602.594,0,24219
17606.562,0,33142
17610.531,0,39520
17614.531,0,34973
17618.469,0,26341
17622.406,0,25201
17626.344,0,34970
17630.312,0,40421
17634.281,0,33137
17638.25,0,24266
17642.219,0,26064
17646.25,0,36522
17650.188,0,40637
17654.125,0,30225
17658.062,0,22731
17662.031,0,28901
17666,0,39988
17669.969,0,39212
17673.938,0,27488
17677.906,0,22482
17681.875,0,32985
17685.844,0,40874
17689.812,0,35618
17693.844,0,25571
17697.781,0,24802
17701.719,0,35440
17705.656,0,40387
17709.688,0,32297
17713.625,0,25280
17717.562,0,26935
17721.5,0,36446
17725.531,0,39927
17729.469,0,31516
17733.406,0,25213
17737.344,0,28445
17741.312,0,36980
17745.281,0,39342
17749.25,0,29242
17753.219,0,22957
17757.188,0,28992
17761.156,0,38451
17765.125,0,37455
17769.094,0,26743
17773.125,0,22484
17777.062,0,32872
17781,0,40510
17784.938,0,34826
17788.875,0,24111
17792.844,0,24199
17796.812,0,35747
17800.781,0,41164
17804.812,0,32076
17808.75,0,23951
17812.688,0,27442
17816.625,0,37760
17820.594,0,39678
17824.562,0,29831
17828.531,0,24140
17832.5,0,30844
17836.562,0,39430
17840.5,0,38834
17844.438,0,28683
17848.375,0,24271
17852.344,0,32533
17856.312,0,39708
17860.281,0,35107
17864.25,0,25594
17868.156,0,23344
17872.125,0,33885
17876.094,0,39876
17880.062,0,33401
17884.094,0,25586
17888.031,0,26634
17891.969,0,36456
17895.906,0,40774
17899.875,0,31911
17903.844,0,25157
17907.812,0,28368
17911.781,0,37655
17915.812,0,39394
17919.75,0,29389
17923.688,0,23438
17927.625,0,30406
17931.594,0,39316
17935.562,0,38237
17939.531,0,27107
17943.5,0,23124
17947.469,0,32775
17951.438,0,40633
17955.406,0,34713
17959.375,0,24788
17963.438,0,24961
17967.375,0,36662
17971.312,0,41101
17975.25,0,31726
17979.25,0,23800
17983.188,0,28250
17987.125,0,37940
17991.062,0,39358
17995,0,29603
17998.969,0,24686
18002.938,0,30736
18006.906,0,38434
18010.969,0,37679
18014.906,0,28880
18018.844,0,24190
18022.781,0,31735
18026.75,0,38632
18030.719,0,36312
18034.688,0,27280
18038.656,0,24149
18042.719,0,33870
18046.656,0,41441
18050.594,0,34888
18054.531,0,25443
18058.531,0,25213
18062.469,0,37026
18066.406,0,41699
18070.344,0,31231
18074.281,0,23365
18078.25,0,28628
18082.219,0,39181
18086.188,0,39636
18090.25,0,28163
18094.188,0,23667
18098.125,0,31948
18102.062,0,40006
18106.031,0,36801
18110,0,26922
18113.969,0,24587
18117.938,0,34066
18121.969,0,39896
18125.906,0,34856
18129.844,0,26211
18133.781,0,25945
18137.75,0,35258
18141.719,0,40662
18145.688,0,32795
18149.656,0,33448
18153.625,0,46022
18157.562,0,55572
18161.5,0,53541
18165.438,0,38935
18169.438,0,27477
18173.406,0,30678
18177.375,0,38210
18181.344,0,37190
18185.375,0,26247
18189.312,0,20974
18193.25,0,29412
18197.188,0,37213
18201.156,0,33651
18205.125,0,24226
18209.094,0,21926
18213.062,0,32613
18217.031,0,38940
18221,0,32224
18224.969,0,23329
18228.938,0,24255
18232.969,0,35112
18236.906,0,39264
18240.844,0,29125
18244.781,0,22535
18248.812,0,27197
18252.75,0,37799
18256.688,0,37931
18260.625,0,26968
18264.656,0,22285
18268.594,0,29909
18272.531,0,36891
18276.469,0,34473
18280.438,0,25597
18284.406,0,23578
18288.375,0,32209
18292.344,0,37993
18296.312,0,33027
18300.281,0,25248
18304.25,0,24600
18308.219,0,33871
18312.281,0,39669
18316.219,0,33566
18320.156,0,25692
18324.094,0,26956
18328.062,0,36297
18332,0,40718
18335.938,0,30657
18339.875,0,22447
18343.906,0,27555
18347.844,0,38143
18351.781,0,38586
18355.719,0,28281
18359.719,0,23480
18363.688,0,33746
18367.656,0,41217
18371.625,0,36398
18375.656,0,26038
18379.594,0,24158
18383.531,0,34164
18387.469,0,38913
18391.438,0,31550
18395.406,0,24143
18399.375,0,25511
18403.344,0,35778
18407.312,0,39480
18411.281,0,31015
18415.25,0,24481
18419.219,0,27939
18423.25,0,36583
18427.188,0,38125
18431.125,0,28116
18435.062,0,22527
18439,0,28722
18442.969,0,37828
18446.938,0,36108
18450.906,0,26444
18454.844,0,23353
18458.812,0,33382
18462.781,0,40151
18466.75,0,34361
18470.812,0,25124
18474.75,0,25550
18478.688,0,35747
18482.625,0,40677
18486.656,0,32334
18490.594,0,24950
18494.531,0,27618
18498.469,0,36698
18502.438,0,39169
18506.406,0,30052
18510.375,0,23961
18514.344,0,29510
18518.344,0,37702
18522.281,0,37990
18526.219,0,27787
18530.156,0,23012
18534.219,0,31659
18538.156,0,40033
18542.094,0,36530
18546.031,0,26681
18549.969,0,24340
18553.938,0,35417
18557.906,0,41443
18561.875,0,34897
18565.844,0,26898
18569.812,0,28523
18573.781,0,38546
18577.75,0,41845
18581.812,0,32961
18585.75,0,27029
18589.688,0,30872
18593.625,0,39584
18597.625,0,40395
18601.562,0,31190
18605.5,0,26330
18609.438,0,33462
18613.406,0,41642
18617.375,0,39854
18621.344,0,28429
18625.312,0,23155
18629.344,0,31508
18633.281,0,39594
18637.219,0,33425
18641.156,0,22666
18645.125,0,22109
18649.094,0,34209
18653.062,0,39843
18657.031,0,30675
18661.062,0,23196
18665,0,28018
18668.938,0,37978
18672.875,0,39130
18676.844,0,28481
18680.812,0,23820
18684.781,0,30328
18688.75,0,37796
18692.781,0,36845
18696.719,0,28245
18700.656,0,24683
18704.594,0,32407
18708.531,0,38276
18712.5,0,35780
18716.469,0,26974
18720.438,0,24061
18724.406,0,33006
18728.375,0,39845
18732.344,0,33936
18736.312,0,24953
18740.344,0,24599
18744.281,0,35835
18748.219,0,40623
18752.156,0,31106
18756.125,0,23149
18760.094,0,27923
18764.062,0,38645
18768.031,0,39656
18772.062,0,28550
18776,0,23354
18779.938,0,31399
18783.875,0,39997
18787.906,0,36755
18791.844,0,26481
18795.781,0,23743
18799.719,0,33536
18803.75,0,39708
18807.688,0,34120
18811.625,0,25522
18815.562,0,25813
18819.531,0,35309
18823.5,0,40635
18827.469,0,32239
18831.438,0,24916
18835.406,0,27478
18839.375,0,37384
18843.344,0,40006
18847.312,0,30164
18851.281,0,23995
18855.25,0,30029
18859.219,0,38292
18863.188,0,37924
18867.219,0,27613
18871.156,0,22995
18875.094,0,31370
18879.031,0,38883
18882.969,0,35802
18886.938,0,26412
18890.906,0,23866
18894.875,0,34202
18898.844,0,40313
18902.812,0,34201
18906.781,0,25236
18910.75,0,26336
18914.781,0,37406
18918.719,0,41649
18922.656,0,31103
18926.594,0,23194
18930.531,0,27758
18934.5,0,39020
18938.469,0,39521
18942.438,0,28741
18946.5,0,24111
18950.438,0,33179
18954.375,0,41652
18958.312,0,38668
18962.344,0,28761
18966.281,0,26008
18970.219,0,34701
18974.156,0,40676
18978.188,0,35637
18982.125,0,27534
18986.062,0,25672
18990,0,33271
18994.031,0,37245
18997.969,0,29870
19001.906,0,22348
19005.844,0,23667
19009.812,0,32720
19013.781,0,37258
19017.75,0,27980
19021.719,0,21517
19025.656,0,27107
19029.625,0,38300
19033.594,0,40085
19037.562,0,29971
19041.594,0,25122
19045.531,0,35389
19049.469,0,43440
19053.406,0,38691
19057.375,0,27216
19061.344,0,25361
19065.312,0,36228
19069.281,0,41292
19073.344,0,33119
19077.281,0,24590
19081.219,0,26296
19085.156,0,36641
19089.062,0,39433
19093.031,0,31172
19097,0,25934
19100.969,0,30769
19105.031,0,38972
19108.969,0,39325
19112.906,0,29528
19116.844,0,24632
19120.812,0,30871
19124.781,0,38318
19128.75,0,35961
19132.719,0,27003
19136.719,0,23123
19140.656,0,31072
19144.594,0,37454
19148.531,0,33984
19152.5,0,26672
19156.469,0,26501
19160.438,0,36406
19164.406,0,43094
19168.438,0,36141
19172.375,0,27099
19176.312,0,27460
19180.25,0,37702
19184.281,0,41760
19188.219,0,30999
19192.156,0,22932
19196.094,0,28662
19200.062,0,38707
19204.031,0,39656
19208,0,29149
19211.969,0,25508
19215.938,0,35503
19219.906,0,43573
19223.875,0,39281
19227.844,0,29650
19231.875,0,29442
19235.812,0,42021
19239.75,0,50957
19243.688,0,63949
19247.625,0,63950
19251.594,0,63948
19255.562,0,63950
19259.531,0,63951
19263.594,0,63945
19267.531,0,63944
19271.469,0,63947
19275.406,0,63953
19279.344,0,63950
19283.312,0,63951
19287.281,0,63947
19291.25,0,63949
19295.281,0,63950
19299.219,0,63946
19303.156,0,63948
19307.094,0,63949
19311.125,0,63951
19315.062,0,63949
19319,0,63949
19322.938,0,63949
19326.969,0,63955
19330.906,0,63953
19334.844,0,63951
19338.781,0,63950
19342.812,0,63946
19346.75,0,63945
19350.688,0,63946
19354.625,0,63947
19358.625,0,63948
19362.594,0,63945
19366.562,0,63949
19370.531,0,63946
19374.531,0,63945
19378.5,0,63945
19382.469,0,63944
19386.438,0,63945
19390.312,0,63946
19394.281,0,63949
19398.25,0,63948
19402.219,0,63948
19406.25,0,63950
19410.188,0,63950
19414.125,0,63953
19418.062,0,63949
19422.031,0,63949
19426,0,63949
19429.969,0,63950
19433.938,0,63954
19437.969,0,63951
19441.906,0,63951
19445.844,0,63953
19449.781,0,63952
19453.812,0,63952
19457.75,0,63952
19461.688,0,63948
19465.625,0,63946
19469.594,0,63945
19473.562,0,63949
19477.531,0,63949
19481.5,0,63949
19485.469,0,63948
19489.438,0,63946
19493.406,0,63947
19497.375,0,63946
19501.375,0,63949
19505.312,0,63946
19509.25,0,63948
19513.188,0,63945
19517.156,0,63949
19521.125,0,63950
19525.094,0,63943
19529.062,0,63947
19533.094,0,63944
19537.031,0,63946
19540.969,0,63941
19544.906,0,63949
19548.875,0,63944
19552.844,0,63945
19556.812,0,63942
19560.781,0,63947
19564.812,0,63948
19568.75,0,63945
19572.688,0,63946
19576.625,0,63946
19580.656,0,63946
19584.594,0,63949
19588.531,0,63949
19592.469,0,63949
19596.438,0,63947
19600.406,0,63949
19604.375,0,63944
19608.344,0,63946
19612.406,0,63946
19616.344,0,63949
19620.281,0,63944
19624.219,0,63945
19628.219,0,63948
19632.156,0,63950
19636.094,0,63951
19640.031,0,63949
19644,0,63950
19647.969,0,63945
19651.938,0,63953
19655.906,0,63947
19659.938,0,63950
19663.875,0,63950
19667.812,0,63952
19671.75,0,63948
19675.75,0,63952
19679.688,0,63952
19683.625,0,63956
19687.562,0,63955
19691.562,0,63956
19695.531,0,63951
19699.5,0,63955
19703.469,0,63954
19707.531,0,63953
19711.469,0,63944
19715.406,0,63946
19719.344,0,63947
19723.281,0,63950
19727.25,0,63949
19731.219,0,63950
19735.188,0,63949
19739.219,0,63954
19743.156,0,63951
19747.094,0,63950
19751.031,0,63951
19755,0,63945
19758.969,0,63951
19762.938,0,63949
19766.906,0,63949
19770.938,0,63950
19774.875,0,63951
19778.812,0,63952
19782.75,0,63953
19786.781,0,63950
19790.719,0,63951
19794.656,0,63949
19798.594,0,63950
19802.562,0,63948
19806.531,0,63948
19810.5,0,63945
19814.469,0,63942
19818.5,0,63950
19822.438,0,63945
19826.375,0,63945
19830.312,0,63948
19834.344,0,63949
19838.281,0,63945
19842.219,0,63944
19846.156,0,63944
19850.188,0,63943
19854.125,0,63947
19858.062,0,63946
19862,0,63945
19866.031,0,63949
19869.969,0,63944
19873.906,0,63946
19877.844,0,63946
19881.812,0,63949
19885.781,0,63946
19889.75,0,63946
19893.719,0,63946
19897.75,0,63948
19901.688,0,63949
19905.625,0,63951
19909.562,0,63949
19913.531,0,63949
19917.5,0,63951
19921.469,0,63950
19925.438,0,63946
19929.406,0,63949
19933.375,0,63948
19937.344,0,63947
19941.312,0,63944
19945.312,0,63945
19949.25,0,63945
19953.188,0,63944
19957.125,0,63948
19961.188,0,63950
19965.125,0,63948
19969.062,0,63949
19973,0,63950
19976.969,0,63950
19980.938,0,63949
19984.906,0,63947
19988.875,0,63949
19992.938,0,63949
19996.875,0,63951
20000.812,0,63950
20004.75,0,63949
20008.688,0,63949
20012.656,0,63950
20016.625,0,63949
20020.594,0,63948
20024.531,0,63950
20028.5,0,63949
20032.469,0,63951
20036.438,0,63947
20040.469,0,63943
20044.406,0,63944
20048.344,0,63949
20052.281,0,63949
20056.25,0,63946
20060.219,0,63946
20064.188,0,63948
20068.156,0,63945
20072.188,0,63949
20076.125,0,63945
20080.062,0,63945
20084,0,63946
20087.969,0,63949
20091.938,0,63949
20095.906,0,63952
20099.875,0,63953
20103.906,0,63950
20107.844,0,63950
20111.781,0,63949
20115.719,0,63950
20119.75,0,63947
20123.688,0,63949
20127.625,0,63950
20131.562,0,63949
20135.531,0,63949
20139.5,0,63950
20143.469,0,63945
20147.438,0,63945
20151.406,0,63946
20155.375,0,63947
20159.344,0,63951
20163.312,0,63949
20167.344,0,63951
20171.281,0,63950
20175.219,0,63951
20179.156,0,63946
20183.125,0,63948
20187.094,0,63949
20191.062,0,63945
20195.031,0,63947
20199.062,0,63948
20203,0,63946
20206.938,0,63949
20210.875,0,63950
20215.094,0,63949
20219.031,0,63951
20222.969,0,63951
20226.906,0,63951
20230.75,0,63951
20234.688,0,63950
20238.625,0,63949
20242.562,0,63951
20246.531,0,63951
20250.5,0,63949
20254.469,0,63950
20258.438,0,63949
20262.406,0,63945
20266.375,0,63945
20270.344,0,63948
20274.312,0,63947
20278.344,0,63948
20282.281,0,63947
20286.219,0,63942
20290.156,0,63949
20294.156,0,63952
20298.094,0,63950
20302.031,0,63949
20305.969,0,63947
20310.031,0,63950
20313.969,0,63946
20317.906,0,63950
20321.844,0,63950
20325.812,0,63950
20329.781,0,63950
20333.75,0,63950
20337.719,0,63949
20341.75,0,63953
20345.688,0,63950
20349.625,0,63949
20353.562,0,63950
20357.531,0,63948
20361.5,0,63949
20365.469,0,63946
20369.438,0,63945
20373.5,0,63947
20377.438,0,63945
20381.375,0,63945
20385.312,0,63949
20389.312,0,63943
20393.25,0,63945
20397.188,0,63949
20401.125,0,63949
20405.094,0,63950
20409.062,0,63950
20413.031,0,63951
20417,0,63952
20421.031,0,63951
20424.969,0,63945
20428.906,0,63952
20432.844,0,63950
20436.812,0,63946
20440.781,0,63948
20444.75,0,63951
20448.719,0,63944
20452.781,0,63946
20456.719,0,63945
20460.656,0,63949
20464.594,0,63950
20468.531,0,63948
20472.5,0,63946
20476.469,0,63948
20480.438,0,63947
20484.438,0,63945
20488.375,0,63948
20492.312,0,63950
20496.25,0,63950
20500.312,0,63950
20504.25,0,63951
20508.188,0,63949
20512.125,0,63951
20516.094,0,63949
20520.062,0,63945
20524.031,0,63946
20528,0,63944
20532.031,0,63946
20535.969,0,63947
20539.906,0,63944
20543.844,0,63944
20547.812,0,63952
20551.781,0,63947
20555.75,0,63949
20559.719,0,63949
20563.688,0,63947
20567.625,0,63949
20571.562,0,63950
20575.5,0,63952
20579.594,0,63952
20583.531,0,63952
20587.469,0,63951
20591.406,0,63951
20595.375,0,63952
20599.344,0,63953
20603.312,0,63953
20607.281,0,63952
20611.312,0,63951
20615.25,0,63950
20619.188,0,63946
20623.125,0,63950
20627.094,0,63950
20631.062,0,63949
20635.031,0,63945
20639,0,63949
20643.062,0,63946
20647,0,63949
20650.938,0,63948
20654.875,0,63950
20658.875,0,63948
20662.812,0,63952
20666.75,0,63950
20670.688,0,63952
20674.656,0,63954
20678.625,0,63950
20682.594,0,63947
20686.562,0,63946
20690.594,0,63946
20694.531,0,63942
20698.469,0,63951
20702.406,0,63948
20706.375,0,63952
20710.344,0,63947
20714.312,0,63951
20718.281,0,63951
20722.25,0,63951
20726.219,0,63951
20730.188,0,63947
20734.156,0,63947
20738.188,0,63951
20742.125,0,63949
20746.062,0,63947
20750,0,63949
20754,0,63950
20757.938,0,63947
20761.875,0,63947
20765.812,0,63947
20769.781,0,63949
20773.75,0,63948
20777.719,0,63944
20781.688,0,63945
20785.656,0,63943
20789.625,0,63944
20793.594,0,63947
20797.562,0,63943
20801.594,0,63945
20805.531,0,63944
20809.469,0,63944
20813.406,0,63949
20817.375,0,63945
20821.344,0,63944
20825.312,0,63949
20829.281,0,63945
20833.312,0,63948
20837.25,0,63946
20841.188,0,63948
20845.125,0,63948
20849.062,0,63948
20853.031,0,63951
20857,0,63948
20860.969,0,63948
20864.938,0,63944
20868.906,0,63949
20872.875,0,63944
20876.844,0,63946
20880.875,0,63948
20884.812,0,63949
20888.75,0,63949
20892.688,0,63948
20896.656,0,63947
20900.625,0,63948
20904.594,0,63950
20908.562,0,63944
20912.625,0,63946
20916.562,0,63944
20920.5,0,63950
20924.438,0,63950
20928.438,0,63949
20932.375,0,63945
20936.312,0,63948
20940.25,0,63944
20944.281,0,63945
20948.219,0,63946
20952.156,0,63946
20956.094,0,63952
20960.125,0,63952
20964.094,0,63948
20968.062,0,63949
20972.031,0,63946
20975.938,0,63949
20979.906,0,63948
20983.875,0,63948
20987.844,0,63948
20991.812,0,63946
20995.781,0,63948
20999.75,0,63947
21003.719,0,63944
21007.719,0,63950
21011.656,0,63944
21015.594,0,63952
21019.531,0,63948
21023.594,0,63950
21027.531,0,63949
21031.469,0,63948
21035.406,0,63949
21039.469,0,63946
21043.406,0,63949
21047.344,0,63950
21051.281,0,63950
21055.219,0,63948
21059.188,0,63950
21063.156,0,63949
21067.125,0,63949
21071.094,0,63947
21075.062,0,63946
21079.031,0,63950
21083,0,63948
21087.062,0,63948
21091,0,63947
21094.938,0,63954
21098.875,0,63949
21102.875,0,63949
21106.812,0,63949
21110.75,0,63948
21114.688,0,63950
21118.656,0,63945
21122.625,0,63946
21126.594,0,63947
21130.562,0,63946
21134.594,0,63950
21138.531,0,63947
21142.469,0,63946
21146.406,0,63945
21150.375,0,63945
21154.344,0,63945
21158.312,0,63944
21162.281,0,63941
21166.312,0,63943
21170.25,0,63945
21174.188,0,63948
21178.125,0,63944
21182.156,0,63946
21186.094,0,63949
21190.031,0,63945
21193.969,0,63947
21198,0,63948
21201.938,0,63946
21205.875,0,63944
21209.812,0,63944
21213.844,0,63946
21217.781,0,63949
21221.719,0,63948
21225.656,0,63952
21229.625,0,63950
21233.594,0,63950
21237.562,0,63948
21241.531,0,63948
21245.5,0,63949
21249.469,0,63949
21253.438,0,63951
21257.406,0,63949
21261.375,0,63950
21265.344,0,63949
21269.312,0,63944
21273.281,0,63948
21277.312,0,63945
21281.25,0,63946
21285.188,0,63950
21289.125,0,63948
21293.062,0,63950
21297.031,0,63948
21301,0,63950
21304.969,0,63946
21309,0,63951
21312.938,0,63947
21316.875,0,63949
21320.812,0,63948
21324.781,0,63951
21328.75,0,63951
21332.719,0,63952
21336.688,0,63949
21340.656,0,63946
21344.625,0,63946
21348.594,0,63948
21352.562,0,63950
21356.594,0,63949
21360.531,0,63952
21364.469,0,63952
21368.406,0,63949
21372.469,0,63951
21376.406,0,63950
21380.344,0,63949
21384.281,0,63950
21388.281,0,63950
21392.219,0,63950
21396.156,0,63948
21400.094,0,63948
21404.125,0,63947
21408.062,0,63946
21412,0,63948
21415.938,0,63945
21419.906,0,63949
21423.875,0,63947
21427.844,0,63949
21431.812,0,63950
21435.781,0,63948
21439.75,0,63948
21443.719,0,63944
21447.688,0,63943
21451.625,0,63943
21455.594,0,63949
21459.562,0,63947
21463.531,0,63945
21467.594,0,63951
21471.531,0,63951
21475.469,0,63946
21479.406,0,63946
21483.344,0,63946
21487.312,0,63942
21491.281,0,63943
21495.25,0,63948
21499.188,0,63947
21503.156,0,63948
21507.125,0,63949
21511.094,0,63950
21515.156,0,63953
21519.094,0,63947
21523.031,0,63945
21526.969,0,63945
21530.938,0,63944
21534.906,0,63947
21538.875,0,63949
21542.844,0,63949
21546.875,0,63952
21550.812,0,63951
21554.75,0,63952
21558.688,0,63949
21562.75,0,63945
21566.688,0,63948
21570.625,0,63950
21574.562,0,63951
21578.5,0,63944
21582.469,0,63946
21586.438,0,63947
21590.406,0,63946
21594.469,0,63947
21598.406,0,63947
21602.344,0,63946
21606.281,0,63948
21610.219,0,63947
21614.188,0,63945
21618.156,0,63945
21622.125,0,63945
21626.156,0,63950
21630.094,0,63949
21634.031,0,63948
21637.969,0,63951
21642,0,63947
21645.938,0,63950
21649.875,0,63949
21653.812,0,63945
21657.844,0,63944
21661.781,0,63945
21665.719,0,63943
21669.656,0,63943
21673.594,0,63944
21677.562,0,63948
21681.531,0,63948
21685.5,0,63949
21689.469,0,63951
21693.438,0,63952
21697.406,0,63950
21701.375,0,63952
21705.438,0,63946
21709.375,0,63950
21713.312,0,63953
21717.25,0,63950
21721.281,0,63951
21725.219,0,63948
21729.156,0,63950
21733.094,0,63949
21737.125,0,63951
21741.062,0,63953
21745,0,63943
21748.938,0,63949
21752.906,0,63946
21756.875,0,63945
21760.844,0,63945
21764.812,0,63945
21768.844,0,63949
21772.781,0,63950
21776.719,0,63948
21780.656,0,63949
21784.688,0,63950
21788.625,0,63949
21792.562,0,63947
21796.5,0,63949
21800.469,0,63944
21804.438,0,63947
21808.406,0,63946
21812.375,0,63949
21816.375,0,63948
21820.312,0,63948
21824.25,0,63951
21828.188,0,63949
21832.156,0,63954
21836.125,0,63950
21840.094,0,63954
21844.062,0,63951
21848.094,0,63952
21852.031,0,63946
21855.969,0,63945
21859.906,0,63946
21863.938,0,63950
21867.875,0,63950
21871.812,0,63947
21875.75,0,63949
21879.719,0,63951
21883.688,0,63951
21887.656,0,63950
21891.625,0,63948
21895.594,0,63949
21899.562,0,63952
21903.531,0,63952
21907.5,0,63951
21911.531,0,63953
21915.469,0,63954
21919.406,0,63954
21923.344,0,63952
21927.375,0,63954
21931.312,0,63951
21935.25,0,63953
21939.188,0,63949
21943.156,0,63949
21947.125,0,63949
21951.094,0,63945
21955.062,0,63949
21959,0,63947
21962.969,0,63948
21966.938,0,63946
21970.906,0,63951
21974.969,0,63950
21978.906,0,63948
21982.844,0,63948
21986.781,0,63946
21990.812,0,63949
21994.75,0,63945
21998.688,0,63946
22002.625,0,63943
22006.656,0,63952
22010.594,0,63943
22014.531,0,63945
22018.469,0,63945
22022.469,0,63946
22026.438,0,63948
22030.406,0,63945
22034.375,0,63949
22038.281,0,63950
22042.25,0,63949
22046.219,0,63950
22050.188,0,63948
22054.25,0,63946
22058.188,0,63947
22062.125,0,63948
22066.062,0,63945
22070,0,63946
22073.969,0,63949
22077.938,0,63951
22081.906,0,63949
22085.938,0,63948
22089.875,0,63944
22093.812,0,63947
22097.75,0,63949
22101.719,0,63947
22105.688,0,63946
22109.656,0,63947
22113.625,0,63947
22117.656,0,63949
22121.594,0,63949
22125.531,0,63948
22129.469,0,63949
22133.438,0,63951
22137.406,0,63946
22141.375,0,63945
22145.344,0,63944
22149.375,0,63948
22153.312,0,63946
22157.25,0,63944
22161.188,0,63946
22165.156,0,63942
22169.125,0,63944
22173.094,0,63948
22177.062,0,63943
22181.062,0,63944
22185,0,63949
22188.938,0,63945
22192.875,0,63944
22196.875,0,63946
22200.844,0,63944
22204.812,0,63944
22208.781,0,63944
22212.719,0,63947
22216.688,0,63945
22220.656,0,63947
22224.625,0,63946
22228.656,0,63948
22232.594,0,63943
22236.531,0,63945
22240.469,0,63946
22244.438,0,63946
22248.406,0,63946
22252.375,0,63945
22256.344,0,63944
22260.375,0,63948
22264.312,0,63949
22268.25,0,63948
22272.188,0,63949
22276.125,0,63945
22280.094,0,63947
22284.062,0,63948
22288.031,0,63945
22291.969,0,63946
22295.938,0,63950
22299.906,0,63945
22303.875,0,63944
22307.938,0,63951
22311.875,0,63949
22315.812,0,63949
22319.75,0,63952
22323.781,0,63953
22327.719,0,63950
22331.656,0,63951
22335.594,0,63950
22339.562,0,63946
22343.531,0,63948
22347.5,0,63948
22351.469,0,63949
22355.5,0,63950
22359.438,0,63946
22363.375,0,63944
22367.312,0,63944
22371.281,0,63944
22375.25,0,63943
22379.219,0,63944
22383.188,0,63945
22387.25,0,63943
22391.188,0,63944
22395.125,0,63945
22399.062,0,63944
22403.031,0,63942
22407,0,63947
22410.969,0,63946
22414.938,0,63947
22418.875,0,63949
22422.844,0,63950
22426.812,0,63947
22430.781,0,63949
22434.844,0,63950
22438.781,0,63949
22442.719,0,63948
22446.656,0,63945
22450.656,0,63946
22454.594,0,63948
22458.531,0,63949
22462.469,0,63947
22466.438,0,63947
22470.406,0,63944
22474.375,0,63947
22478.344,0,63945
22482.406,0,63945
22486.344,0,63943
22490.281,0,63944
22494.219,0,63946
22498.156,0,63948
22502.125,0,63946
22506.094,0,63944
22510.062,0,63944
22514.125,0,63947
22518.062,0,63945
22522,0,63945
22525.938,0,63944
22529.938,0,63945
22533.875,0,63948
22537.812,0,63945
22541.75,0,63945
22545.688,0,63948
22549.656,0,63944
22553.625,0,63945
22557.594,0,63949
22561.656,0,63945
22565.594,0,63947
22569.531,0,63948
22573.469,0,63948
22577.531,0,63948
22581.469,0,63947
22585.406,0,63943
22589.344,0,63948
22593.281,0,63944
22597.25,0,63942
22601.219,0,63945
22605.188,0,63945
22609.156,0,63950
22613.125,0,63949
22617.094,0,63948
22621.062,0,63945
22625.062,0,63945
22629,0,63944
22632.938,0,63945
22636.875,0,63944
22640.844,0,63943
22644.812,0,63945
22648.781,0,63944
22652.75,0,63946
22656.781,0,63944
22660.719,0,63948
22664.656,0,63947
22668.594,0,63946
22672.562,0,63951
22676.531,0,63948
22680.5,0,63947
22684.469,0,63952
22688.5,0,63948
22692.438,0,63951
22696.375,0,63950
22700.312,0,63952
22704.25,0,63951
22708.219,0,63949
22712.188,0,63949
22716.156,0,63949
22720.188,0,63948
22724.125,0,63943
22728.062,0,63946
22732,0,63948
22736.156,0,63948
22740.094,0,63946
22744.031,0,63944
22747.969,0,63942
22751.812,0,63946
22755.781,0,63949
22759.75,0,63948
22763.719,0,63945
22767.75,0,63944
22771.688,0,63947
22775.625,0,63946
22779.562,0,63947
22783.594,0,63951
22787.531,0,63950
22791.469,0,63945
22795.406,0,63947
22799.438,0,63947
22803.375,0,63952
22807.312,0,63950
22811.25,0,63944
22815.25,0,63951
22819.188,0,63947
22823.125,0,63949
22827.062,0,63952
22831.031,0,63950
22835,0,63950
22838.969,0,63949
22842.938,0,63948
22846.969,0,63946
22850.906,0,63949
22854.844,0,63950
22858.781,0,63950
22862.844,0,63948
22866.781,0,63947
22870.719,0,63947
22874.656,0,63951
22878.594,0,63948
22882.562,0,63949
22886.531,0,63950
22890.5,0,63944
22894.5,0,63947
22898.438,0,63942
22902.375,0,63943
22906.312,0,63944
22910.344,0,63944
22914.281,0,63945
22918.219,0,63946
22922.156,0,63945
22926.125,0,63944
22930.094,0,63946
22934.062,0,63942
22938.031,0,63942
22942.062,0,63944
22946,0,63942
22949.938,0,63947
22953.875,0,63947
22957.906,0,63947
22961.844,0,63947
22965.781,0,63943
22969.719,0,63945
22973.719,0,63942
22977.656,0,63945
22981.594,0,63946
22985.531,0,63946
22989.562,0,63945
22993.5,0,63945
22997.438,0,63943
23001.375,0,63944
23005.344,0,63950
23009.312,0,63946
23013.281,0,63947
23017.25,0,63949
23021.281,0,63949
23025.219,0,63949
23029.156,0,63950
23033.094,0,63949
23037.156,0,63949
23041.094,0,63948
23045.031,0,63951
23048.969,0,63950
23052.906,0,63950
23056.875,0,63949
23060.844,0,63950
23064.812,0,63947
23068.812,0,63950
23072.75,0,63946
23076.688,0,63948
23080.625,0,63949
23084.656,0,63949
23088.594,0,63951
23092.531,0,63947
23096.469,0,63950
23100.5,0,63945
23104.438,0,63944
23108.375,0,63946
23112.312,0,63951
23116.25,0,63948
23120.219,0,63951
23124.188,0,63949
23128.156,0,63947
23132.219,0,63948
23136.156,0,63948
23140.094,0,63949
23144.031,0,63949
23148.062,0,63950
23152,0,63946
23155.938,0,63947
23159.875,0,63948
23163.875,0,63951
23167.812,0,63947
23171.75,0,63950
23175.688,0,63949
23179.688,0,63944
23183.625,0,63948
23187.562,0,63949
23191.5,0,63950
23195.469,0,63947
23199.438,0,63952
23203.406,0,63947
23207.375,0,63948
23211.438,0,63947
23215.375,0,63951
23219.312,0,63943
23223.25,0,63945
23227.312,0,63947
23231.25,0,63945
23235.188,0,63945
23239.125,0,63947
23243.062,0,63950
23247.031,0,63948
23251,0,63945
23254.969,0,63949
23259,0,63946
23262.938,0,63947
23266.875,0,63948
23270.812,0,63949
23274.875,0,63951
23278.812,0,63949
23282.75,0,63949
23286.688,0,63949
23290.594,0,63952
23294.562,0,63949
23298.531,0,63952
23302.5,0,63946
23306.531,0,63947
23310.469,0,63946
23314.406,0,63949
23318.344,0,63946
23322.406,0,63948
23326.344,0,63945
23330.281,0,63950
23334.219,0,63950
23338.219,0,63951
23342.156,0,63952
23346.094,0,63950
23350.031,0,63944
23354.062,0,63945
23358,0,63946
23361.938,0,63946
23365.875,0,63949
23369.906,0,63945
23373.844,0,63946
23377.781,0,63944
23381.719,0,63949
23385.75,0,63944
23389.688,0,63950
23393.625,0,63950
23397.562,0,63947
23401.594,0,63947
23405.531,0,63943
23409.469,0,63948
23413.406,0,63947
23417.438,0,63948
23421.375,0,63947
23425.312,0,63946
23429.25,0,63946
23433.219,0,63948
23437.188,0,63949
23441.156,0,63949
23445.125,0,63950
23449.125,0,63950
23453.062,0,63947
23457,0,63950
23460.938,0,63947
23464.969,0,63951
23468.906,0,63949
23472.844,0,63946
23476.781,0,63948
23480.75,0,63943
23484.719,0,63946
23488.688,0,63947
23492.656,0,63948
23496.688,0,63947
23500.625,0,63952
23504.562,0,63951
23508.5,0,63947
23512.562,0,63949
23516.5,0,63951
23520.438,0,63950
23524.375,0,63944
23528.281,0,63943
23532.25,0,63946
23536.219,0,63948
23540.188,0,63951
23544.188,0,63948
23548.125,0,63949
23552.062,0,63951
23556,0,63952
23560.062,0,63953
23564,0,63945
23567.938,0,63948
23571.875,0,63949
23575.906,0,63948
23579.844,0,63948
23583.781,0,63949
23587.719,0,63951
23591.688,0,63952
23595.656,0,63945
23599.625,0,63951
23603.594,0,63951
23607.625,0,63949
23611.562,0,63951
23615.5,0,63952
23619.438,0,63947
23623.5,0,63946
23627.438,0,63950
23631.375,0,63949
23635.312,0,63950
23639.312,0,63950
23643.25,0,63942
23647.188,0,63944
23651.125,0,63947
23655.156,0,63946
23659.094,0,63945
23663.031,0,63948
23666.969,0,63949
23671,0,63942
23674.938,0,63948
23678.875,0,63945
23682.812,0,63950
23686.781,0,63945
23690.75,0,63945
23694.719,0,63946
23698.688,0,63947
23702.75,0,63944
23706.688,0,63943
23710.625,0,63947
23714.562,0,63947
23718.469,0,63947
23722.438,0,63943
23726.406,0,63946
23730.375,0,63945
23734.406,0,63945
23738.344,0,63941
23742.281,0,63945
23746.219,0,63940
23750.25,0,63942
23754.188,0,63944
23758.125,0,63946
23762.062,0,63947
23766.094,0,63945
23770.031,0,63945
23773.969,0,63944
23777.906,0,63945
23781.875,0,63945
23785.844,0,63946
23789.812,0,63946
23793.781,0,63945
23797.812,0,63945
23801.75,0,63945
23805.688,0,63942
23809.625,0,63945
23813.656,0,63946
23817.594,0,63947
23821.531,0,63946
23825.469,0,63949
23829.469,0,63939
23833.406,0,63943
23837.344,0,63945
23841.281,0,63946
23845.344,0,63947
23849.281,0,63943
23853.219,0,63947
23857.156,0,63945
23861.188,0,63946
23865.125,0,63945
23869.062,0,63943
23873,0,63943
23877.062,0,63945
23881,0,63945
23884.938,0,63944
23888.875,0,63943
23892.812,0,63942
23896.781,0,63943
23900.75,0,63942
23904.719,0,63944
23908.75,0,63944
23912.688,0,63942
23916.625,0,63940
23920.562,0,63943
23924.562,0,63945
23928.5,0,63945
23932.438,0,63943
23936.375,0,63943
23940.406,0,63945
23944.344,0,63941
23948.281,0,63940
23952.219,0,63945
23956.156,0,63944
23960.125,0,63944
23964.094,0,63949
23968.062,0,63946
23972.125,0,63943
23976.062,0,63940
23980,0,63944
23983.938,0,63943
23988,0,63945
23991.938,0,63946
23995.875,0,63944
23999.812,0,63948
24003.812,0,63947
24007.75,0,63944
24011.688,0,63946
24015.625,0,63945
24019.625,0,63948
24023.562,0,63949
24027.5,0,63949
24031.438,0,63947
24035.5,0,63945
24039.438,0,63945
24043.375,0,63945
24047.312,0,63946
24051.344,0,63947
24055.281,0,63944
24059.219,0,63948
24063.156,0,63947
24067.125,0,63948
24071.094,0,63943
24075.062,0,63944
24079.031,0,63946
24083.062,0,63944
24087,0,63947
24090.938,0,63949
24094.875,0,63945
24098.875,0,63943
24102.812,0,63947
24106.75,0,63943
24110.688,0,63947
24114.781,0,63949
24118.719,0,63948
24122.656,0,63944
24126.594,0,63944
24130.594,0,63948
24134.531,0,63946
24138.469,0,63949
24142.406,0,63944
24146.344,0,63944
24150.312,0,63946
24154.281,0,63948
24158.25,0,63949
24162.312,0,63944
24166.25,0,63944
24170.188,0,63943
24174.125,0,63943
24178.156,0,63946
24182.094,0,63945
24186.031,0,63947
24189.969,0,63944
24193.938,0,63943
24197.875,0,63942
24201.812,0,63948
24205.75,0,63945
24209.688,0,63943
24213.656,0,63938
24217.625,0,63942
24221.594,0,63941
24225.656,0,63944
24229.594,0,63943
24233.531,0,63940
24237.469,0,63941
24241.5,0,63940
24245.438,0,63945
24249.375,0,63944
24253.312,0,63948
24257.344,0,63948
24261.281,0,63947
24265.219,0,63941
24269.156,0,63945
24273.219,0,63947
24277.156,0,63946
24281.094,0,63949
24285.031,0,63941
24289.031,0,63944
24292.969,0,63946
24296.906,0,63945
24300.844,0,63949
24304.875,0,63948
24308.812,0,63948
24312.75,0,63947
24316.688,0,63944
24320.719,0,63943
24324.656,0,63948
24328.594,0,63948
24332.531,0,63945
24336.594,0,63946
24340.531,0,63945
24344.469,0,63947
24348.406,0,63945
24352.344,0,63949
24356.312,0,63949
24360.281,0,63945
24364.25,0,63947
24368.281,0,63950
24372.219,0,63945
24376.156,0,63947
24380.094,0,63943
24384.094,0,63946
24388.031,0,63943
24391.969,0,63948
24395.906,0,63949
24399.938,0,63952
24403.875,0,63940
24407.812,0,63944
24411.75,0,63947
24415.781,0,63948
24419.719,0,63946
24423.656,0,63946
24427.594,0,63943
24431.562,0,63944
24435.531,0,63940
24439.5,0,63948
24443.469,0,63948
24447.5,0,63945
24451.438,0,63945
24455.375,0,63948
24459.312,0,63947
24463.375,0,63947
24467.312,0,63949
24471.25,0,63945
24475.188,0,63945
24479.188,0,63944
24483.125,0,63945
24487.062,0,63950
24491,0,63947
24495.031,0,63943
24498.969,0,63948
24502.906,0,63951
24506.844,0,63950
24510.875,0,63948
24514.812,0,63944
24518.75,0,63949
24522.688,0,63948
24526.75,0,63947
24530.688,0,63944
24534.625,0,63943
24538.562,0,63942
24542.531,0,63946
24546.5,0,63948
24550.469,0,63945
24554.438,0,63946
24558.438,0,63944
24562.375,0,63944
24566.312,0,63943
24570.25,0,63946
24574.219,0,63946
24578.156,0,63942
24582.094,0,63943
24586.031,0,63945
24590.094,0,63947
24594.031,0,63941
24597.969,0,63942
24601.906,0,63944
24605.875,0,63942
24609.844,0,63945
24613.812,0,63944
24617.781,0,63945
24621.844,0,63942
24625.781,0,63943
24629.719,0,63943
24633.656,0,63947
24637.656,0,63943
24641.594,0,63943
24645.531,0,63940
24649.469,0,63942
24653.531,0,63944
24657.469,0,63945
24661.406,0,63944
24665.344,0,63944
24669.312,0,63944
24673.25,0,63941
24677.188,0,63945
24681.125,0,63946
24685.188,0,63942
24689.125,0,63948
24693.062,0,63943
24697,0,63943
24701.031,0,63946
24704.969,0,63945
24708.906,0,63944
24712.844,0,63948
24716.875,0,63948
24720.812,0,63943
24724.75,0,63941
24728.688,0,63943
24732.656,0,63944
24736.625,0,63944
24740.594,0,63944
24744.562,0,63946
24748.562,0,63947
24752.5,0,63945
24756.438,0,63944
24760.375,0,63944
24764.375,0,63948
24768.312,0,63949
24772.25,0,63949
24776.188,0,63950
24780.25,0,63947
24784.188,0,63956
24788.125,0,63950
24792.062,0,63949
24796.094,0,63944
24800.031,0,63947
24803.969,0,63949
24807.906,0,63952
24811.875,0,63948
24815.844,0,63945
24819.812,0,63941
24823.781,0,63943
24827.812,0,63948
24831.75,0,63949
24835.688,0,63949
24839.625,0,63950
24843.656,0,63948
24847.594,0,63945
24851.531,0,63943
24855.469,0,63944
24859.469,0,63946
24863.406,0,63948
24867.344,0,63947
24871.281,0,63947
24875.344,0,63949
24879.281,0,63946
24883.219,0,63944
24887.156,0,63946
24891.188,0,63949
24895.125,0,63946
24899.062,0,63945
24903,0,63942
24907.062,0,63947
24911,0,63943
24914.938,0,63945
24918.875,0,63947
24922.812,0,63948
24926.781,0,63946
24930.75,0,63945
24934.719,0,63946
24938.719,0,63945
24942.656,0,63946
24946.594,0,63949
24950.531,0,63946
24954.625,0,63942
24958.562,0,63942
24962.5,0,63945
24966.438,0,63944
24970.344,0,63944
24974.312,0,63945
24978.281,0,63949
24982.25,0,63947
24986.281,0,63943
24990.219,0,63945
24994.156,0,63949
24998.094,0,63947
25002.125,0,63948
25006.062,0,63947
25010,0,63946
25013.938,0,63945
25017.906,0,63947
25021.875,0,63948
25025.844,0,63949
25029.812,0,63948
25033.812,0,63947
25037.75,0,63945
25041.688,0,63947
25045.625,0,63947
25049.656,0,63951
25053.594,0,63949
25057.531,0,63950
25061.469,0,63945
25065.438,0,63947
25069.406,0,63948
25073.375,0,63946
25077.344,0,63948
25081.375,0,63951
25085.312,0,63950
25089.25,0,63951
25093.188,0,63944
25097.25,0,63944
25101.188,0,63944
25105.125,0,63948
25109.062,0,63950
25113,0,63952
25116.969,0,63948
25120.938,0,63947
25124.906,0,63945
25128.906,0,63947
25132.844,0,63946
25136.781,0,63949
25140.719,0,63951
25144.75,0,63945
25148.688,0,63943
25152.625,0,63941
25156.562,0,63941
25160.531,0,63946
25164.5,0,63945
25168.469,0,63948
25172.438,0,63947
25176.531,0,63946
25180.469,0,63946
25184.406,0,63948
25188.344,0,63944
25192.25,0,63944
25196.219,0,63944
25200.188,0,63945
25204.156,0,63948
25208.188,0,63946
25212.125,0,63947
25216.062,0,63947
25220,0,63947
25224,0,63948
25227.938,0,63950
25231.875,0,63946
25235.812,0,63943
25239.781,0,63945
25243.75,0,63945
25247.719,0,63945
25251.688,0,63948
25255.75,0,63945
25259.688,0,63944
25263.625,0,63943
25267.562,0,63942
25271.5,0,63946
25275.469,0,63944
25279.438,0,63943
25283.406,0,63947
25287.469,0,63944
25291.406,0,63945
25295.344,0,63944
25299.281,0,63945
25303.188,0,63944
25307.156,0,63947
25311.125,0,63945
25315.094,0,63942
25319.125,0,63947
25323.062,0,63949
25327,0,63949
25330.938,0,63950
25334.906,0,63949
25338.875,0,63947
25342.844,0,63948
25346.812,0,63951
25350.844,0,63950
25354.781,0,63948
25358.719,0,63949
25362.656,0,63947
25366.625,0,63948
25370.594,0,63948
25374.562,0,63948
25378.531,0,63946
25382.5,0,63942
25386.469,0,63945
25390.438,0,63943
25394.406,0,63942
25398.406,0,63944
25402.344,0,63945
25406.281,0,63942
25410.219,0,63948
25414.25,0,63945
25418.188,0,63945
25422.125,0,63943
25426.062,0,63944
25430.031,0,63944
25434,0,63945
25437.969,0,63941
25441.938,0,63944
25445.906,0,63943
25449.875,0,63946
25453.844,0,63947
25457.812,0,63943
25461.844,0,63946
25465.781,0,63943
25469.719,0,63946
25473.656,0,63949
25477.719,0,63949
25481.656,0,63948
25485.594,0,63949
25489.531,0,63947
25493.531,0,63947
25497.469,0,63949
25501.406,0,63945
25505.344,0,63943
25509.375,0,63951
25513.312,0,63944
25517.25,0,63946
25521.188,0,63947
25525.156,0,63945
25529.125,0,63943
25533.094,0,63941
25537.062,0,63944
25541.094,0,63941
25545.031,0,63947
25548.969,0,63943
25552.906,0,63946
25556.875,0,63943
25560.844,0,63945
25564.812,0,63944
25568.781,0,63943
25572.812,0,63948
25576.75,0,63947
25580.688,0,63948
25584.625,0,63941
25588.625,0,63943
25592.562,0,63941
25596.5,0,63945
25600.438,0,63946
25604.5,0,63949
25608.438,0,63946
25612.375,0,63949
25616.312,0,63946
25620.25,0,63948
25624.219,0,63945
25628.188,0,63945
25632.156,0,63944
25636.219,0,63944
25640.156,0,63942
25644.094,0,63943
25648.031,0,63942
25652,0,63942
25655.969,0,63944
25659.938,0,63941
25663.906,0,63944
25667.906,0,63942
25671.844,0,63942
25675.781,0,63942
25679.719,0,63944
25683.75,0,63947
25687.688,0,63945
25691.625,0,63945
25695.562,0,63949
25699.531,0,63948
25703.5,0,63949
25707.469,0,63949
25711.438,0,63947
25715.406,0,63943
25719.375,0,63950
25723.344,0,63946
25727.312,0,63948
25731.344,0,63950
25735.281,0,63948
25739.219,0,63946
25743.156,0,63945
25747.125,0,63946
25751.094,0,63943
25755.062,0,63943
25759.031,0,63943
25763.031,0,63944
25766.969,0,63942
25770.906,0,63947
25774.844,0,63944
25778.875,0,63947
25782.812,0,63943
25786.75,0,63948
25790.688,0,63944
25794.688,0,63945
25798.656,0,63944
25802.625,0,63943
25806.594,0,63947
25810.594,0,63946
25814.531,0,63943
25818.469,0,63944
25822.406,0,63941
25826.375,0,63943
25830.344,0,63942
25834.312,0,63943
25838.281,0,63942
25842.344,0,63945
25846.281,0,63942
25850.219,0,63945
25854.156,0,63946
25858.156,0,63943
25862.094,0,63946
25866.031,0,63943
25869.969,0,63944
25874,0,63946
25877.938,0,63950
25881.875,0,63947
25885.812,0,63946
25890.031,0,63950
25894,0,63939
25897.969,0,63944
25901.938,0,63944
25905.719,0,63945
25909.656,0,63944
25913.594,0,63944
25917.531,0,63942
25921.562,0,63943
25925.5,0,63946
25929.438,0,63947
25933.375,0,63942
25937.312,0,63945
25941.281,0,63945
25945.25,0,63943
25949.219,0,63943
25953.281,0,63943
25957.219,0,63942
25961.156,0,63938
25965.094,0,63944
25969.094,0,63942
25973.031,0,63946
25976.969,0,63945
25980.906,0,63946
25984.875,0,63944
25988.844,0,63944
25992.812,0,63942
25996.781,0,63942
26000.812,0,63942
26004.75,0,63943
26008.688,0,63944
26012.625,0,63945
26016.656,0,63947
26020.594,0,63949
26024.531,0,63945
26028.469,0,63944
26032.5,0,63944
26036.438,0,63944
26040.375,0,63945
26044.312,0,63946
26048.344,0,63951
26052.281,0,63945
26056.219,0,63946
26060.156,0,63945
26064.188,0,63945
26068.125,0,63943
26072.062,0,63945
26076,0,63943
26080.062,0,63943
26084,0,63944
26087.938,0,63948
26091.875,0,63945
26095.812,0,63948
26099.781,0,63946
26103.75,0,63941
26107.719,0,63943
26111.75,0,63942
26115.688,0,63942
26119.625,0,63944
26123.562,0,63943
26127.594,0,63948
26131.531,0,63944
26135.469,0,63945
26139.406,0,63946
26143.344,0,63942
26147.312,0,63939
26151.281,0,63942
26155.25,0,63941
26159.281,0,63943
26163.219,0,63947
26167.156,0,63944
26171.094,0,63947
26175.125,0,63942
26179.062,0,63949
26183,0,63945
26186.938,0,63944
26190.906,0,63945
26194.875,0,63945
26198.844,0,63949
26202.812,0,63949
26206.844,0,63949
26210.781,0,63947
26214.719,0,63943
26218.656,0,63939
26222.688,0,63944
26226.625,0,63946
26230.562,0,63949
26234.5,0,63950
26238.531,0,63949
26242.469,0,63947
26246.406,0,63944
26250.344,0,63946
26254.281,0,63946
26258.25,0,63946
26262.219,0,63948
26266.188,0,63945
26270.219,0,63945
26274.156,0,63948
26278.094,0,63945
26282.031,0,63947
26286.062,0,63948
26290,0,63943
26293.938,0,63944
26297.875,0,63944
26301.844,0,63949
26305.812,0,63946
26309.781,0,63949
26313.75,0,63947
26317.75,0,63950
26321.688,0,63943
26325.625,0,63945
26329.562,0,63947
26333.5,0,63949
26337.469,0,63947
26341.438,0,63948
26345.406,0,63949
26349.438,0,63948
26353.375,0,63949
26357.312,0,63950
26361.25,0,63948
26365.312,0,63942
26369.25,0,63944
26373.188,0,63946
26377.125,0,63945
26381.156,0,63948
26385.094,0,63949
26389.031,0,63947
26392.969,0,63944
26397.031,0,63947
26400.969,0,63944
26404.906,0,63943
26408.844,0,63945
26412.844,0,63948
26416.781,0,63946
26420.719,0,63950
26424.656,0,63945
26428.688,0,63946
26432.625,0,63944
26436.562,0,63946
26440.5,0,63946
26444.531,0,63948
26448.469,0,63949
26452.406,0,63942
26456.344,0,63949
26460.375,0,63947
26464.312,0,63942
26468.25,0,63942
26472.188,0,63942
26476.156,0,63948
26480.125,0,63946
26484.094,0,63947
26488.062,0,63947
26492.094,0,63943
26496.031,0,63941
26499.969,0,63942
26503.906,0,63943
26507.906,0,63945
26511.844,0,63946
26515.781,0,63945
26519.719,0,63943
26523.75,0,63942
26527.688,0,63942
26531.625,0,63942
26535.562,0,63942
26539.531,0,63943
26543.5,0,63945
26547.469,0,63945
26551.438,0,63946
26555.469,0,63943
26559.406,0,63947
26563.344,0,63944
26567.281,0,63947
26571.25,0,63948
26575.219,0,63945
26579.188,0,63949
26583.156,0,63945
26587.156,0,63946
26591.094,0,63944
26595.031,0,63943
26598.969,0,63943
26603.031,0,63941
26606.969,0,63945
26610.906,0,63943
26614.844,0,63946
26618.875,0,63945
26622.812,0,63943
26626.75,0,63944
26630.688,0,63941
26634.688,0,63943
26638.656,0,63943
26642.625,0,63942
26646.594,0,63942
26650.594,0,63943
26654.531,0,63943
26658.469,0,63943
26662.406,0,63942
26666.469,0,63943
26670.406,0,63943
26674.344,0,63944
26678.281,0,63942
26682.281,0,63945
26686.219,0,63945
26690.156,0,63942
26694.094,0,63940
26698.125,0,63944
26702.062,0,63942
26706,0,63942
26709.938,0,63946
26713.969,0,63949
26717.906,0,63945
26721.844,0,63948
26725.781,0,63943
26729.719,0,63942
26733.688,0,63947
26737.656,0,63940
26741.625,0,63942
26745.688,0,63943
26749.625,0,63946
26753.562,0,63943
26757.5,0,63943
26761.531,0,63944
26765.469,0,63941
26769.406,0,63945
26773.344,0,63942
26777.375,0,63944
26781.312,0,63942
26785.25,0,63944
26789.188,0,63946
26793.219,0,63944
26797.156,0,63942
26801.094,0,63941
26805.031,0,63942
26809.062,0,63943
26813,0,63946
26816.938,0,63944
26820.875,0,63946
26824.906,0,63942
26828.844,0,63943
26832.781,0,63941
26836.719,0,63944
26840.75,0,63942
26844.688,0,63942
26848.625,0,63948
26852.562,0,63944
26856.531,0,63950
26860.5,0,63945
26864.469,0,63944
26868.438,0,63945
26872.469,0,63949
26876.406,0,63949
26880.344,0,63949
26884.281,0,63944
26888.281,0,63944
26892.219,0,63949
26896.156,0,63948
26900.094,0,63949
26904.125,0,63950
26908.062,0,63948
26912,0,63950
26915.938,0,63950
26919.906,0,63949
26923.875,0,63950
26927.844,0,63949
26931.812,0,63946
26935.844,0,63950
26939.781,0,63944
26943.719,0,63948
26947.656,0,63945
26951.688,0,63946
26955.625,0,63943
26959.562,0,63945
26963.5,0,63949
26967.531,0,63947
26971.469,0,63947
26975.406,0,63943
26979.344,0,63941
26983.375,0,63945
26987.312,0,63945
26991.25,0,63947
26995.188,0,63942
26999.219,0,63947
27003.156,0,63944
27007.094,0,63941
27011.031,0,63940
27015.062,0,63948
27019,0,63943
27022.938,0,63946
27026.875,0,63949
27030.906,0,63950
27034.844,0,63946
27038.781,0,63948
27042.719,0,63942
27046.688,0,63943
27050.656,0,63947
27054.625,0,63944
27058.594,0,63944
27062.625,0,63944
27066.562,0,63944
27070.5,0,63944
27074.438,0,63943
27078.438,0,63944
27082.375,0,63945
27086.312,0,63947
27090.25,0,63945
27094.281,0,63947
27098.219,0,63948
27102.156,0,63946
27106.094,0,63946
27110.125,0,63943
27114.062,0,63942
27118,0,63943
27121.938,0,63944
27125.906,0,63947
27129.875,0,63948
27133.844,0,63947
27137.812,0,63947
27141.812,0,63947
27145.75,0,63944
27149.688,0,63943
27153.625,0,63945
27157.656,0,63944
27161.594,0,63947
27165.531,0,63946
27169.469,0,63945
27173.531,0,63950
27177.469,0,63949
27181.406,0,63948
27185.344,0,63947
27189.281,0,63944
27193.25,0,63941
27197.219,0,63944
27201.188,0,63943
27205.219,0,63941
27209.156,0,63943
27213.094,0,63948
27217.031,0,63948
27221.062,0,63946
27225,0,63945
27228.938,0,63941
27232.875,0,63949
27236.906,0,63947
27240.844,0,63948
27244.781,0,63948
27248.719,0,63945
27252.75,0,63940
27256.688,0,63941
27260.625,0,63945
27264.562,0,63945
27268.594,0,63947
27272.531,0,63945
27276.469,0,63945
27280.406,0,63942
27284.438,0,63943
27288.375,0,63945
27292.312,0,63945
27296.25,0,63946
27300.281,0,63947
27304.219,0,63949
27308.156,0,63948
27312.094,0,63949
27316.125,0,63948
27320.062,0,63948
27324,0,63946
27327.938,0,63948
27331.938,0,63948
27335.875,0,63945
27339.812,0,63946
27343.75,0,63949
27347.812,0,63948
27351.75,0,63944
27355.688,0,63948
27359.625,0,63948
27363.625,0,63949
27367.562,0,63947
27371.5,0,63943
27375.438,0,63949
27379.5,0,63944
27383.438,0,63944
27387.375,0,63944
27391.312,0,63947
27395.25,0,63947
27399.219,0,63946
27403.188,0,63945
27407.156,0,63946
27411.219,0,63948
27415.156,0,63949
27419.094,0,63948
27423.031,0,63943
27427.062,0,63944
27431,0,63943
27434.938,0,63947
27438.875,0,63943
27442.812,0,63941
27446.781,0,63942
27450.75,0,63942
27454.719,0,63945
27458.75,0,63947
27462.688,0,63946
27466.625,0,63945
27470.562,0,63941
27474.656,0,63943
27478.594,0,63942
27482.531,0,63948
27486.469,0,63945
27490.438,0,63946
27494.375,0,63945
27498.312,0,63948
27502.25,0,63942
27506.219,0,63949
27510.188,0,63942
27514.156,0,63940
27518.125,0,63943
27522.125,0,63942
27526.062,0,63944
27530,0,63943
27533.938,0,63946
27537.875,0,63945
27541.844,0,63944
27545.812,0,63941
27549.781,0,63945
27553.812,0,63945
27557.75,0,63942
27561.688,0,63943
27565.625,0,63942
27569.594,0,63942
27573.562,0,63942
27577.531,0,63942
27581.5,0,63942
27585.562,0,63942
27589.5,0,63940
27593.438,0,63943
27597.375,0,63942
27601.438,0,63943
27605.375,0,63946
27609.312,0,63943
27613.25,0,63944
27617.25,0,63948
27621.188,0,63942
27625.125,0,63950
27629.062,0,63947
27633.125,0,63948
27637.062,0,63948
27641,0,63946
27644.938,0,63948
27648.875,0,63950
27652.844,0,63948
27656.812,0,63950
27660.781,0,63951
27664.812,0,63952
27668.75,0,63947
27672.688,0,63950
27676.625,0,63950
27680.594,0,63949
27684.562,0,63946
27688.531,0,63946
27692.5,0,63948
27696.531,0,63949
27700.469,0,63948
27704.406,0,63945
27708.344,0,63949
27712.406,0,63947
27716.344,0,63946
27720.281,0,63946
27724.219,0,63947
27728.219,0,63947
27732.156,0,63946
27736.094,0,63945
27740.031,0,63945
27744,0,63944
27747.969,0,63945
27751.938,0,63944
27755.906,0,63942
27759.938,0,63943
27763.875,0,63944
27767.812,0,63945
27771.75,0,63942
27775.719,0,63944
27779.688,0,63943
27783.656,0,63941
27787.625,0,63943
27791.656,0,63947
27795.594,0,63942
27799.531,0,63943
27803.469,0,63946
27807.406,0,63945
27811.375,0,63944
27815.344,0,63947
27819.312,0,63944
27823.375,0,63945
27827.312,0,63945
27831.25,0,63946
27835.188,0,63948
27839.125,0,63946
27843.094,0,63946
27847.062,0,63946
27851.031,0,63945
27855.062,0,63943
27859,0,63948
27862.938,0,63947
27866.875,0,63944
27870.812,0,63947
27874.781,0,63946
27878.75,0,63945
27882.719,0,63948
27886.75,0,63948
27890.688,0,63949
27894.625,0,63943
27898.562,0,63945
27902.625,0,63944
27906.562,0,63949
27910.5,0,63946
27914.438,0,63948
27918.375,0,63947
27922.344,0,63950
27926.312,0,63949
27930.281,0,63948
27934.312,0,63949
27938.25,0,63947
27942.188,0,63950
27946.125,0,63949
27950.094,0,63950
27954.062,0,63948
27958.031,0,63948
27962,0,63945
27966.031,0,63949
27969.969,0,63948
27973.906,0,63942
27977.844,0,63947
27981.875,0,63951
27985.812,0,63952
27989.75,0,63945
27993.688,0,63943
27997.656,0,63948
28001.625,0,63944
28005.594,0,63945
28009.562,0,63945
28013.594,0,63947
28017.531,0,63940
28021.469,0,63945
28025.406,0,63946
28029.438,0,63945
28033.375,0,63945
28037.312,0,63944
28041.25,0,63946
28045.219,0,63945
28049.188,0,63947
28053.156,0,63947
28057.125,0,63946
28061.125,0,63948
28065.062,0,63948
28069,0,63948
28072.938,0,63947
28076.906,0,63947
28080.875,0,63947
28084.844,0,63952
28088.812,0,63947
28092.844,0,63949
28096.781,0,63946
28100.719,0,63950
28104.656,0,63948
28108.625,0,63948
28112.594,0,63948
28116.562,0,63948
28120.531,0,63946
28124.562,0,63947
28128.5,0,63945
28132.438,0,63950
28136.375,0,63949
28140.344,0,63945
28144.312,0,63946
28148.281,0,63946
28152.25,0,63945
28156.25,0,63945
28160.188,0,63945
28164.125,0,63950
28168.062,0,63947
28172.031,0,63949
28176,0,63950
28179.969,0,63952
28183.938,0,63950
28187.938,0,63948
28191.875,0,63951
28195.812,0,63948
28199.75,0,63951
28203.844,0,63951
28207.781,0,63950
28211.719,0,63950
28215.656,0,63949
28219.594,0,63949
28223.562,0,63946
28227.531,0,63949
28231.5,0,63950
28235.438,0,63950
28239.406,0,63945
28243.375,0,63946
28247.344,0,63945
28251.375,0,63946
28255.312,0,63949
28259.25,0,63948
28263.188,0,63946
28267.25,0,63949
28271.188,0,63949
28275.125,0,63949
28279.062,0,63949
28283,0,63947
28286.969,0,63945
28290.938,0,63946
28294.906,0,63948
28298.844,0,63944
28302.812,0,63942
28306.781,0,63943
28310.75,0,63947
28314.844,0,63947
28318.781,0,63943
28322.719,0,63944
28326.656,0,63949
28330.656,0,63948
28334.594,0,63944
28338.531,0,63941
28342.469,0,63949
28346.5,0,63945
28350.438,0,63949
28354.375,0,63947
28358.312,0,63949
28362.375,0,63947
28366.312,0,63949
28370.25,0,63948
28374.188,0,63949
28378.125,0,63948
28382.094,0,63949
28386.062,0,63947
28390.031,0,63948
28394.062,0,63946
28398,0,63949
28401.938,0,63947
28405.875,0,63948
28409.844,0,63947
28413.812,0,63952
28417.781,0,63949
28421.75,0,63948
28425.75,0,63949
28429.688,0,63947
28433.625,0,63947
28437.562,0,63945
28441.531,0,63948
28445.5,0,63946
28449.469,0,63948
28453.438,0,63944
28457.469,0,63945
28461.406,0,63945
28465.344,0,63947
28469.281,0,63945
28473.25,0,63946
28477.219,0,63942
28481.188,0,63948
28485.156,0,63947
28489.188,0,63944
28493.125,0,63946
28497.062,0,63945
28501,0,63950
28505.031,0,63946
28508.969,0,63947
28512.906,0,63951
28516.844,0,63949
28520.875,0,63948
28524.812,0,63949
28528.75,0,63945
28532.688,0,63949
28536.75,0,63946
28540.688,0,63949
28544.625,0,63946
28548.562,0,63945
28552.5,0,63948
28556.469,0,63949
28560.438,0,63946
28564.406,0,63948
28568.438,0,63944
28572.375,0,63949
28576.312,0,63948
28580.25,0,63946
28584.25,0,63943
28588.188,0,63943
28592.125,0,63943
28596.062,0,63941
28600.125,0,63944
28604.062,0,63947
28608,0,63945
28611.938,0,63947
28615.969,0,63944
28619.906,0,63947
28623.844,0,63948
28627.781,0,63947
28631.812,0,63943
28635.75,0,63942
28639.688,0,63945
28643.625,0,63945
28647.656,0,63948
28651.594,0,63945
28655.531,0,63945
28659.469,0,63947
28663.438,0,63948
28667.406,0,63947
28671.375,0,63948
28675.344,0,63947
28679.375,0,63944
28683.312,0,63944
28687.25,0,63940
28691.188,0,63947
28695.219,0,63944
28699.156,0,63945
28703.094,0,63946
28707.031,0,63945
28711.031,0,63947
28714.969,0,63946
28718.906,0,63947
28722.844,0,63941
28726.906,0,63946
28730.844,0,63944
28734.781,0,63947
28738.719,0,63947
28742.688,0,63947
28746.656,0,63945
28750.625,0,63945
28754.594,0,63942
28758.594,0,63943
28762.531,0,63946
28766.469,0,63945
28770.406,0,63948
28774.469,0,63949
28778.406,0,63946
28782.344,0,63946
28786.281,0,63948
28790.281,0,63951
28794.219,0,63943
28798.156,0,63943
28802.094,0,63946
28806.156,0,63944
28810.094,0,63945
28814.031,0,63951
28817.969,0,63947
28822,0,63949
28825.938,0,63949
28829.875,0,63945
28833.812,0,63944
28837.844,0,63945
28841.781,0,63948
28845.719,0,63944
28849.656,0,63946
28853.688,0,63949
28857.625,0,63944
28861.562,0,63948
28865.5,0,63951
28869.469,0,63945
28873.438,0,63948
28877.406,0,63949
28881.375,0,63949
28885.375,0,63951
28889.312,0,63949
28893.25,0,63944
28897.188,0,63944
28901.125,0,63945
28905.094,0,63949
28909.062,0,63946
28913.031,0,63947
28917.094,0,63946
28921.031,0,63948
28924.969,0,63944
28928.906,0,63951
28932.969,0,63948
28936.906,0,63948
28940.844,0,63947
28944.781,0,63942
28948.719,0,63944
28952.688,0,63943
28956.656,0,63943
28960.625,0,63944
28964.656,0,63944
28968.594,0,63941
28972.531,0,63946
28976.469,0,63946
28980.469,0,63941
28984.406,0,63941
28988.344,0,63942
28992.281,0,63944
28996.344,0,63944
29000.281,0,63942
29004.219,0,63941
29008.156,0,63940
29012.188,0,63941
29016.125,0,63945
29020.062,0,63940
29024,0,63941
29028,0,63948
29031.969,0,63945
29035.938,0,63943
29039.906,0,63942
29043.875,0,63945
29047.812,0,63942
29051.75,0,63943
29055.688,0,63940
29059.656,0,63945
29063.625,0,63944
29067.594,0,63944
29071.562,0,63942
29075.594,0,63946
29079.531,0,63946
29083.469,0,63942
29087.406,0,63945
29091.438,0,63941
29095.375,0,63944
29099.312,0,63942
29103.25,0,63941
29107.281,0,63947
29111.219,0,63944
29115.156,0,63943
29119.094,0,63945
29123.062,0,63942
29127.031,0,63943
29131,0,63945
29134.969,0,63937
29139,0,63944
29142.938,0,63945
29146.875,0,63944
29150.812,0,63943
29154.875,0,63945
29158.812,0,63943
29162.75,0,63943
29166.688,0,63941
29170.688,0,63944
29174.625,0,63945
29178.562,0,63942
29182.5,0,63946
29186.5,0,63946
29190.438,0,63944
29194.375,0,63945
29198.312,0,63945
29202.312,0,63944
29206.281,0,63945
29210.25,0,63948
29214.219,0,63945
29218.25,0,63946
29222.188,0,63944
29226.125,0,63942
29230.062,0,63940
29234.125,0,63942
29238.062,0,63941
29242,0,63942
29245.938,0,63942
29249.906,0,63942
29253.844,0,63942
29257.781,0,63945
29261.719,0,63946
29265.781,0,63948
29269.719,0,63945
29273.656,0,63943
29277.594,0,63947
29281.625,0,63944
29285.562,0,63939
29289.5,0,63944
29293.438,0,63945
29297.406,0,63945
29301.375,0,63945
29305.344,0,63944
29309.312,0,63940
29313.375,0,63941
29317.312,0,63943
29321.25,0,63942
29325.188,0,63945
29329.094,0,63944
29333.062,0,63946
29337.031,0,63945
29341,0,63948
29345.031,0,63947
29348.969,0,63947
29352.906,0,63941
29356.844,0,63942
29360.875,0,63945
29364.812,0,63946
29368.75,0,63948
29372.688,0,63948
29376.656,0,63944
29380.625,0,63945
29384.594,0,63945
29388.562,0,63946
29392.625,0,63946
29396.562,0,63949
29400.5,0,63947
29404.438,0,63947
29408.375,0,63943
29412.344,0,63940
29416.312,0,63944
29420.281,0,63943
29424.281,0,63948
29428.219,0,63945
29432.156,0,63947
29436.094,0,63947
29440.125,0,63948
29444.062,0,63944
29448,0,63948
29451.938,0,63945
29455.875,0,63947
29459.844,0,63946
29463.812,0,63940
29467.781,0,63943
29471.844,0,63945
29475.781,0,63942
29479.719,0,63944
29483.656,0,63944
29487.625,0,63943
29491.594,0,63943
29495.562,0,63940
29499.531,0,63944
29503.594,0,63948
29507.531,0,63946
29511.469,0,63939
29515.406,0,63945
29519.344,0,63943
29523.312,0,63945
29527.281,0,63943
29531.25,0,63945
29535.25,0,63944
29539.188,0,63943
29543.125,0,63946
29547.062,0,63948
29551.094,0,63943
29555.031,0,63942
29558.969,0,63941
29562.906,0,63944
29566.875,0,63944
29570.844,0,63945
29574.812,0,63944
29578.781,0,63944
29582.812,0,63941
29586.75,0,63946
29590.688,0,63943
29594.625,0,63941
29598.688,0,63943
29602.625,0,63942
29606.562,0,63945
29610.5,0,63945
29614.406,0,63943
29618.375,0,63947
29622.344,0,63947
29626.312,0,63946
29630.344,0,63947
29634.281,0,63949
29638.219,0,63947
29642.156,0,63950
29646.125,0,63949
29650.094,0,63948
29654.062,0,63950
29658.031,0,63949
29662.062,0,63949
29666,0,63946
29669.938,0,63948
29673.875,0,63946
29677.812,0,63945
29681.781,0,63947
29685.75,0,63946
29689.719,0,63943
29693.781,0,63945
29697.719,0,63947
29701.656,0,63945
29705.594,0,63947
29709.625,0,63948
29713.562,0,63945
29717.5,0,63942
29721.438,0,63941
29725.469,0,63945
29729.406,0,63944
29733.344,0,63944
29737.281,0,63944
29741.25,0,63948
29745.219,0,63948
29749.188,0,63945
29753.156,0,63949
29757.188,0,63945
29761.125,0,63948
29765.062,0,63944
29769,0,63944
29772.969,0,63943
29776.938,0,63941
29780.906,0,63941
29784.875,0,63945
29788.906,0,63942
29792.844,0,63944
29796.781,0,63941
29800.719,0,63945
29804.719,0,63944
29808.656,0,63940
29812.594,0,63945
29816.531,0,63943
29820.594,0,63944
29824.531,0,63942
29828.469,0,63948
29832.406,0,63944
29836.375,0,63945
29840.344,0,63946
29844.312,0,63943
29848.281,0,63943
29852.344,0,63943
29856.281,0,63945
29860.219,0,63943
29864.156,0,63948
29868.156,0,63941
29872.094,0,63942
29876.031,0,63941
29879.969,0,63945
29883.906,0,63948
29887.875,0,63945
29891.844,0,63944
29895.812,0,63947
29899.844,0,63947
29903.781,0,63949
29907.719,0,63949
29911.656,0,63946
29915.625,0,63946
29919.594,0,63946
29923.562,0,63945
29927.531,0,63946
29931.5,0,63945
29935.469,0,63943
29939.438,0,63947
29943.406,0,63947
29947.375,0,63949
29951.344,0,63946
29955.312,0,63946
29959.281,0,63948
29963.312,0,63946
29967.25,0,63946
29971.188,0,63944
29975.125,0,63949
29979.156,0,63945
29983.094,0,63941
29987.031,0,63946
29990.969,0,63941
29995.062,0,63943
29999,0,63942
30002.938,0,63943
30006.875,0,63944
30010.781,0,63944
30014.75,0,63948
30018.719,0,63943
30022.688,0,63946
30026.75,0,63948
30030.688,0,63944
30034.625,0,63948
30038.562,0,63946
30042.531,0,63949
30046.5,0,63947
30050.469,0,63949
30054.438,0,63945
30058.344,0,63949
30062.312,0,63944
30066.281,0,63946
30070.25,0,63944
30074.25,0,63945
30078.188,0,63944
30082.125,0,63946
30086.062,0,63945
30090.031,0,63947
30094,0,63943
30097.969,0,63948
30101.938,0,63944
30106,0,63950
30109.938,0,63950
30113.875,0,63943
30117.812,0,63945
30121.781,0,63943
30125.75,0,63942
30129.719,0,63944
30133.688,0,63943
30137.719,0,63942
30141.656,0,63945
30145.594,0,63944
30149.531,0,63946
30153.469,0,63944
30157.438,0,63946
30161.406,0,63947
30165.375,0,63943
30169.406,0,63945
30173.344,0,63943
30177.281,0,63946
30181.219,0,63943
30185.25,0,63943
30189.188,0,63946
30193.125,0,63948
30197.062,0,63947
30201.031,0,63944
30205,0,63942
30208.969,0,63942
30212.938,0,63945
30217,0,63946
30220.938,0,63948
30224.875,0,63947
30228.812,0,63948
30232.75,0,63948
30236.719,0,63942
30240.688,0,63945
30244.656,0,63944
30248.656,0,63946
30252.594,0,63946
30256.531,0,63947
30260.469,0,63946
30264.438,0,63945
30268.406,0,63942
30272.375,0,63941
30276.344,0,63940
30280.375,0,63941
30284.312,0,63945
30288.25,0,63945
30292.188,0,63944
30296.156,0,63944
30300.125,0,63944
30304.094,0,63941
30308.062,0,63941
30312.094,0,63941
30316.031,0,63941
30319.969,0,63939
30323.906,0,63942
30327.844,0,63941
30331.812,0,63943
30335.781,0,63944
30339.75,0,63947
30343.75,0,63944
30347.688,0,63948
30351.625,0,63944
30355.562,0,63945
30359.531,0,63947
30363.5,0,63945
30367.469,0,63945
30371.438,0,63944
30375.5,0,63941
30379.438,0,63944
30383.375,0,63945
30387.312,0,63944
30391.281,0,63944
30395.25,0,63941
30399.219,0,63939
30403.188,0,63943
30407.219,0,63943
30411.156,0,63945
30415.094,0,63946
30419.031,0,63945
30423.062,0,63943
30427,0,63945
30430.938,0,63948
30434.875,0,63949
30438.906,0,63948
30442.844,0,63945
30446.781,0,63946
30450.719,0,63942
30454.75,0,63941
30458.688,0,63944
30462.625,0,63943
30466.562,0,63941
30470.531,0,63945
30474.5,0,63945
30478.469,0,63944
30482.438,0,63943
30486.469,0,63945
30490.406,0,63944
30494.344,0,63945
30498.281,0,63944
30502.25,0,63944
30506.219,0,63943
30510.188,0,63942
30514.156,0,63944
30518.156,0,63946
30522.094,0,63940
30526.031,0,63943
30529.969,0,63940
30534,0,63941
30537.938,0,63941
30541.875,0,63945
30545.812,0,63941
30549.781,0,63941
30553.75,0,63945
30557.719,0,63945
30561.688,0,63945
30565.719,0,63948
30569.656,0,63944
30573.594,0,63944
30577.531,0,63948
30581.5,0,63943
30585.469,0,63943
30589.438,0,63941
30593.406,0,63940
30597.469,0,63943
30601.406,0,63941
30605.344,0,63942
30609.281,0,63942
30613.281,0,63942
30617.219,0,63948
30621.156,0,63948
30625.094,0,63948
30629.125,0,63949
30633.062,0,63945
30637,0,63945
30640.938,0,63944
30644.906,0,63943
30648.875,0,63941
30652.844,0,63940
30656.812,0,63942
30660.844,0,63941
30664.781,0,63941
30668.719,0,63949
30672.656,0,63943
30676.625,0,63947
30680.594,0,63945
30684.562,0,63944
30688.531,0,63949
30692.594,0,63946
30696.531,0,63944
30700.469,0,63948
30704.406,0,63947
30708.406,0,63946
30712.344,0,63947
30716.281,0,63942
30720.219,0,63942
30724.25,0,63946
30728.188,0,63944
30732.125,0,63947
30736.062,0,63943
30740.031,0,63945
30744,0,63945
30747.969,0,63943
30751.938,0,63942
30755.875,0,63946
30759.844,0,63945
30763.812,0,63941
30767.781,0,63943
30771.844,0,63943
30775.781,0,63944
30779.719,0,63940
30783.656,0,63945
30787.688,0,63942
30791.625,0,63942
30795.562,0,63941
30799.5,0,63940
30803.531,0,63941
30807.469,0,63941
30811.406,0,63941
30815.344,0,63946
30819.375,0,63943
30823.312,0,63941
30827.25,0,63941
30831.188,0,63942
30835.219,0,63947
30839.188,0,63944
30843.156,0,63943
30847.125,0,63942
30851.094,0,63942
30855.031,0,63948
30858.969,0,63944
30862.906,0,63944
30866.875,0,63943
30870.844,0,63943
30874.812,0,63945
30878.781,0,63941
30882.812,0,63941
30886.75,0,63943
30890.688,0,63940
30894.625,0,63941
30898.656,0,63944
30902.594,0,63942
30906.531,0,63944
30910.469,0,63943
30914.5,0,63940
30918.438,0,63940
30922.375,0,63942
30926.312,0,63943
30930.281,0,63944
30934.25,0,63939
30938.219,0,63947
30942.188,0,63944
30946.219,0,63944
30950.156,0,63944
30954.094,0,63943
30958.031,0,63944
30962,0,63941
30965.969,0,63942
30969.938,0,63945
30973.906,0,63948
30977.906,0,63945
30981.844,0,63944
30985.781,0,63944
30989.719,0,63947
30993.75,0,63946
30997.688,0,63947
31001.625,0,63945
31005.562,0,63948
31009.531,0,63941
31013.5,0,63942
31017.469,0,63946
31021.438,0,63947
31025.406,0,63940
31029.375,0,63943
31033.344,0,63941
31037.312,0,63943
31041.344,0,63943
31045.281,0,63942
31049.219,0,63941
31053.156,0,63945
31057.094,0,63944
31061.062,0,63946
31065.031,0,63942
31069,0,63942
31073.062,0,63947
31077,0,63945
31080.938,0,63950
31084.875,0,63945
31088.781,0,63948
31092.75,0,63947
31096.719,0,63947
31100.688,0,63943
31104.75,0,63943
31108.688,0,63945
31112.625,0,63946
31116.562,0,63944
31120.625,0,63945
31124.562,0,63946
31128.5,0,63946
31132.438,0,63949
31136.375,0,63949
31140.344,0,63948
31144.312,0,63947
31148.281,0,63948
31152.312,0,63949
31156.25,0,63946
31160.188,0,63949
31164.125,0,63952
31168.156,0,63948
31172.094,0,63946
31176.031,0,63942
31179.969,0,63944
31184,0,63944
31187.938,0,63943
31191.875,0,63944
31195.812,0,63943
31199.781,0,63945
31203.75,0,63945
31207.719,0,63945
31211.688,0,63945
31215.656,0,63944
31219.625,0,63945
31223.594,0,63949
31227.562,0,63947
31231.594,0,63948
31235.531,0,63946
31239.469,0,63943
31243.406,0,63940
31247.438,0,63942
31251.375,0,63943
31255.312,0,63945
31259.25,0,63939
31263.312,0,63944
31267.25,0,63942
31271.188,0,63943
31275.125,0,63942
31279.156,0,63945
31283.094,0,63946
31287.031,0,63949
31290.969,0,63944
31294.906,0,63942
31298.875,0,63942
31302.844,0,63943
31306.812,0,63940
31310.75,0,63941
31314.719,0,63944
31318.688,0,63942
31322.656,0,63940
31326.719,0,63941
31330.656,0,63943
31334.594,0,63946
31338.531,0,63945
31342.562,0,63944
31346.5,0,63945
31350.438,0,63947
31354.375,0,63944
31358.312,0,63946
31362.281,0,63944
31366.25,0,63944
31370.219,0,63943
31374.25,0,63941
31378.188,0,63943
31382.125,0,63944
31386.062,0,63944
31390.031,0,63944
31394,0,63945
31397.969,0,63948
31401.938,0,63948
31405.969,0,63947
31409.906,0,63947
31413.844,0,63942
31417.781,0,63942
31421.812,0,63943
31425.75,0,63948
31429.688,0,63944
31433.625,0,63948
31437.656,0,63945
31441.594,0,63943
31445.531,0,63941
31449.469,0,63944
31453.531,0,63944
31457.469,0,63946
31461.406,0,63946
31465.344,0,63943
31469.281,0,63944
31473.25,0,63944
31477.219,0,63941
31481.188,0,63945
31485.219,0,63942
31489.156,0,63946
31493.094,0,63948
31497.031,0,63946
31501,0,63944
31504.969,0,63944
